1749976367.721268,3056
1749976367.722407,3223
1749976367.731272,3230
1749976367.731436,3050
1749976367.7315965,2747
1749976367.7317574,2446
1749976367.7319174,2287
1749976367.7320876,2404
1749976367.73225,2743
1749976367.7324045,3088
1749976367.7325583,3262
1749976367.7327085,3264
1749976367.732866,3139
1749976367.7330244,2960
1749976367.7331824,2779
1749976367.7333405,2630
1749976367.7334983,2534
1749976367.7336566,2608
1749976367.733814,2881
1749976367.7339716,3222
1749976367.7341285,3436
1749976367.734286,3474
1749976367.7344437,3345
1749976367.7346022,3122
1749976367.73476,2885
1749976367.7349176,2694
1749976367.7350752,2560
1749976367.7352338,2586
1749976367.735392,2830
1749976367.7355607,3188
1749976367.7357192,3450
1749976367.7358768,3535
1749976367.736049,3429
1749976367.7362096,3189
1749976367.7363675,2901
1749976367.736532,2664
1749976367.7366908,2507
1749976367.7368453,2527
1749976367.7370782,2790
1749976367.7384546,3199
1749976367.7393568,3517
1749976367.7403617,3622
1749976367.740943,3505
1749976367.7421103,3234
1749976367.7426043,2917
1749976367.7436411,2659
1749976367.7492166,2482
1749976367.7512739,2448
1749976367.7523599,2641
1749976367.7533548,3011
1749976367.7544835,3346
1749976367.755381,3499
1749976367.7566564,3437
1749976367.7576888,3194
1749976367.7588875,2866
1749976367.759843,2572
1749976367.7607045,2366
1749976367.7618206,2304
1749976367.7628717,2476
1749976367.7639213,2840
1749976367.7650535,3193
1749976367.7662082,3364
1749976367.767293,3327
1749976367.7687602,3109
1749976367.7702954,2798
1749976367.7713065,2501
1749976367.7723591,2286
1749976367.7734306,2194
1749976367.7744143,2325
1749976367.7755158,2666
1749976367.7763846,3037
1749976367.7773778,3245
1749976367.7784061,3247
1749976367.7799034,3056
1749976367.7807844,2751
1749976367.7817311,2434
1749976367.7825756,2191
1749976367.783531,2059
1749976367.784477,2143
1749976367.7854335,2453
1749976367.7864866,2835
1749976367.787469,3074
1749976367.7884974,3110
1749976367.7899244,2949
1749976367.7909381,2659
1749976367.7919028,2336
1749976367.7928286,2080
1749976367.79381,1927
1749976367.7999363,1975
1749976367.8062718,2257
1749976367.8076198,2646
1749976367.8085225,2920
1749976367.8097074,2997
1749976367.810898,2873
1749976367.812819,2601
1749976367.81433,2267
1749976367.8155766,1985
1749976367.8166146,1803
1749976367.8177516,1810
1749976367.8183959,2061
1749976367.8190157,2453
1749976367.8197167,2761
1749976367.8204205,2874
1749976367.8211377,2785
1749976367.8228638,2536
1749976367.8259635,2210
1749976367.8264885,1918
1749976367.8272016,1715
1749976367.8277416,1680
1749976367.828279,1889
1749976367.8288164,2273
1749976367.8293564,2613
1749976367.830745,2764
1749976367.8417568,2712
1749976367.841958,2488
1749976367.8420458,2171
1749976367.847834,1867
1749976367.8520343,1646
1749976367.860182,1572
1749976367.8606768,1740
1749976367.860897,2111
1749976367.861117,2480
1749976367.861337,2670
1749976367.8615582,2656
1749976367.8618205,2459
1749976367.862041,2154
1749976367.862314,1842
1749976367.8627286,1600
1749976367.8629363,1480
1749976367.8632588,1596
1749976367.8634527,1941
1749976367.8637066,2334
1749976367.8639667,2559
1749976367.864213,2572
1749976367.864447,2393
1749976367.8647032,2105
1749976367.8649554,1798
1749976367.865695,1548
1749976367.8663757,1392
1749976367.8672533,1459
1749976367.8679106,1789
1749976367.868591,2224
1749976367.869253,2504
1749976367.8699174,2539
1749976367.8705652,2358
1749976367.8711574,2070
1749976367.8717086,1772
1749976367.8723886,1526
1749976367.8730314,1344
1749976367.8737514,1349
1749976367.8746207,1634
1749976367.8753395,2087
1749976367.876109,2426
1749976367.8769197,2514
1749976367.877792,2367
1749976367.8785284,2094
1749976367.8791857,1797
1749976367.8798742,1544
1749976367.8806002,1336
1749976367.8813102,1279
1749976367.8819678,1504
1749976367.8827658,1943
1749976367.8836713,2321
1749976367.8845282,2458
1749976367.8851159,2354
1749976367.885738,2100
1749976367.8863895,1806
1749976367.8869944,1545
1749976367.8876626,1329
1749976367.888235,1233
1749976367.8888416,1399
1749976367.8892386,1798
1749976367.8898668,2186
1749976367.8905964,2359
1749976367.8911006,2294
1749976367.8916202,2058
1749976367.8922465,1762
1749976367.8927584,1493
1749976367.8932695,1283
1749976367.8938804,1180
1749976367.8949304,1318
1749976367.8957548,1693
1749976367.896708,2097
1749976367.8985353,2308
1749976367.8986635,2289
1749976367.8993766,2087
1749976367.900175,1804
1749976367.9006217,1524
1749976367.9011114,1296
1749976367.9015963,1157
1749976367.9019375,1244
1749976367.902974,1589
1749976367.9034164,2013
1749976367.9038255,2265
1749976367.904371,2282
1749976367.904888,2097
1749976367.9076493,1816
1749976367.908145,1525
1749976367.9089928,1286
1749976367.9094217,1119
1749976367.9100738,1152
1749976367.910917,1451
1749976367.9112632,1881
1749976367.9117947,2179
1749976367.9120727,2245
1749976367.9126644,2096
1749976367.9133835,1830
1749976367.9144788,1538
1749976367.91487,1293
1749976367.915229,1108
1749976367.915448,1094
1749976367.9156604,1350
1749976367.9158735,1780
1749976367.9160843,2120
1749976367.9162936,2228
1749976367.9165063,2110
1749976367.916748,1854
1749976367.9169815,1560
1749976367.9172006,1308
1749976367.9174104,1110
1749976367.9176195,1055
1749976367.9183376,1263
1749976367.9186862,1682
1749976367.9189045,2058
1749976367.9191146,2212
1749976367.9193223,2129
1749976367.9195294,1886
1749976367.9196808,1591
1749976367.920681,1332
1749976367.9208925,1132
1749976367.9211042,1051
1749976367.9213166,1220
1749976367.9215286,1619
1749976367.9217398,2021
1749976367.9219499,2219
1749976367.9221678,2181
1749976367.92238,1960
1749976367.9226146,1664
1749976368.0089374,1383
1749976368.0592213,1156
1749976368.1670387,1028
1749976368.4236684,1135
1749976368.5329847,1489
1749976368.587341,1901
1749976368.6463683,2138
1749976368.6945484,2146
1749976368.7742414,1959
1749976368.7751694,1680
1749976368.7758093,1399
1749976368.7768812,1171
1749976368.7775834,1025
1749976368.7780187,1094
1749976368.7789125,1421
1749976368.7794247,1849
1749976368.78033,2122
1749976368.781433,2160
1749976368.7822356,1989
1749976368.782397,1713
1749976368.7829702,1424
1749976368.8769157,1191
1749976368.9389908,1029
1749976368.9537897,1058
1749976368.9612055,1352
1749976368.961289,1788
1749976368.9615133,2101
1749976368.9710572,2178
1749976368.9813464,2037
1749976368.981427,1773
1749976368.9816291,1482
1749976368.9816992,1239
1749976368.981772,1056
1749976368.9818435,1035
1749976368.981915,1275
1749976368.981986,1697
1749976368.9820569,2046
1749976368.9825723,2173
1749976368.9827616,2077
1749976368.9833786,1829
1749976368.9835558,1527
1749976368.9836278,1262
1749976368.983699,1065
1749976368.98377,1013
1749976368.9838407,1214
1749976368.9839118,1616
1749976368.9839823,1983
1749976368.984053,2144
1749976368.9841237,2084
1749976368.9841938,1856
1749976368.9842644,1554
1749976368.9843402,1274
1749976368.9844108,1064
1749976368.984481,981
1749976368.984552,1142
1749976368.984622,1524
1749976368.9846926,1915
1749976368.9847627,2115
1749976368.9848335,2092
1749976368.9849024,1886
1749976368.984973,1589
1749976368.9850433,1296
1749976368.9851139,1069
1749976368.985184,951
1749976368.9852543,1064
1749976368.9853246,1417
1749976368.9854069,1826
1749976368.9854758,2065
1749976368.985547,2082
1749976368.9856174,1905
1749976368.9856877,1624
1749976368.9857583,1328
1749976368.9858289,1091
1749976368.9858994,944
1749976368.9859703,1010
1749976368.9860408,1331
1749976368.986111,1756
1749976368.986182,2040
1749976368.9862573,2101
1749976368.9863281,1956
1749976368.9863987,1694
1749976368.9864697,1402
1749976368.9865398,1160
1749976368.9867842,996
1749976368.9868574,1020
1749976368.9869285,1302
1749976368.9869998,1730
1749976368.9870715,2049
1749976368.987142,2144
1749976368.9972425,2025
1749976368.9973228,1771
1749976368.9973967,1473
1749976368.9974706,1221
1749976368.9975436,1041
1749976368.9976315,1023
1749976368.997706,1261
1749976368.9977787,1681
1749976368.9978518,2038
1749976368.9979243,2182
1749976368.9979966,2105
1749976369.0167096,1868
1749976369.0192277,1564
1749976369.0193021,1290
1749976369.0193672,1086
1749976369.0194275,1024
1749976369.019493,1213
1749976369.0195603,1613
1749976369.0196304,2000
1749976369.0197067,2190
1749976369.019773,2160
1749976369.01984,1948
1749976369.019908,1645
1749976369.0199783,1350
1749976369.0200434,1118
1749976369.0201087,1002
1749976369.020176,1123
1749976369.020244,1472
1749976369.0203097,1856
1749976369.0203772,2064
1749976369.0204432,2060
1749976369.0205095,1875
1749976369.0205767,1603
1749976369.0206423,1331
1749976369.0207071,1119
1749976369.0207727,1000
1749976369.0208387,1098
1749976369.0209045,1441
1749976369.0209696,1865
1749976369.0210364,2131
1749976369.0211015,2169
1749976369.02117,2001
1749976369.021236,1722
1749976369.0213013,1430
1749976369.0213773,1204
1749976369.0214462,1063
1749976369.0215118,1116
1749976369.0215764,1414
1749976369.0216522,1833
1749976369.0217175,2126
1749976369.021786,2193
1749976369.0218523,2033
1749976369.0219202,1725
1749976369.0219855,1375
1749976369.0220509,1088
1749976369.022122,897
1749976369.0221875,890
1749976369.022253,1131
1749976369.0223181,1526
1749976369.0223837,1850
1749976369.0224504,1988
1749976369.0225158,1929
1749976369.0225763,1712
1749976369.0226376,1418
1749976369.0227041,1156
1749976369.022769,976
1749976369.0228345,958
1749976369.0228994,1184
1749976369.022965,1580
1749976369.0230303,1925
1749976369.0230954,2083
1749976369.02316,2043
1749976369.0232253,1838
1749976369.0232909,1547
1749976369.0233524,1277
1749976369.023418,1091
1749976369.023482,1052
1749976369.0235472,1248
1749976369.0236158,1626
1749976369.023681,1978
1749976369.0237467,2138
1749976369.0238118,2095
1749976369.0238771,1881
1749976369.0239427,1572
1749976369.0240092,1264
1749976369.0240746,1030
1749976369.0241408,926
1749976369.024206,1068
1749976369.024271,1443
1749976369.0243359,1861
1749976369.0244026,2111
1749976369.0244699,2147
1749976369.0245385,1987
1749976369.0246062,1710
1749976369.0246801,1416
1749976369.0247455,1189
1749976369.0248137,1068
1749976369.0248792,1161
1749976369.0249474,1487
1749976369.0250175,1897
1749976369.0250888,2171
1749976369.0251584,2247
1749976369.025231,2124
1749976369.0253007,1867
1749976369.0253701,1565
1749976369.0681171,1319
1749976369.0881267,1169
1749976369.1213849,1216
1749976369.1829634,1506
1749976369.183081,1919
1749976369.1836503,2224
1749976369.1837568,2328
1749976369.1838615,2228
1749976369.1839657,1982
1749976369.1917067,1676
1749976369.2306027,1417
1749976369.230688,1244
1749976369.2307613,1244
1749976369.2308319,1487
1749976369.231247,1886
1749976369.231603,2216
1749976369.231866,2352
1749976369.232019,2285
1749976369.2321384,2058
1749976369.2325537,1754
1749976369.2326577,1481
1749976369.2327888,1287
1749976369.2330036,1245
1749976369.233107,1446
1749976369.2332108,1835
1749976369.233624,2196
1749976369.23375,2372
1749976369.233854,2341
1749976369.2478375,2133
1749976369.247949,1830
1749976369.2480543,1540
1749976369.2481527,1331
1749976369.248229,1257
1749976369.2483044,1420
1749976369.2483797,1788
1749976369.2484553,2167
1749976369.24853,2376
1749976369.248605,2385
1749976369.2486804,2207
1749976369.2487726,1916
1749976369.2488818,1611
1749976369.2489636,1378
1749976369.2490935,1268
1749976369.2491732,1385
1749976369.2494888,1722
1749976369.2806442,2112
1749976369.2998395,2348
1749976369.2999344,2387
1749976369.3000233,2235
1749976369.3001308,1955
1749976369.3002205,1639
1749976369.3003085,1389
1749976369.3003962,1251
1749976369.3004978,1328
1749976369.3005865,1638
1749976369.3006737,2038
1749976369.3007607,2308
1749976369.3009262,2382
1749976369.3010225,2259
1749976369.3011184,1996
1749976369.301214,1675
1749976369.3013093,1406
1749976369.3014052,1236
1749976369.3015013,1263
1749976369.3015964,1536
1749976369.301692,1944
1749976369.303647,2256
1749976369.303778,2371
1749976369.3038757,2281
1749976369.3039901,2035
1749976369.3040867,1714
1749976369.304183,1434
1749976369.3042784,1244
1749976369.3043742,1225
1749976369.3726602,1452
1749976369.4028354,1845
1749976369.4029386,2184
1749976369.4030368,2335
1749976369.4031284,2283
1749976369.4032044,2062
1749976369.4053092,1751
1749976369.4061246,1463
1749976369.4062085,1260
1749976369.4062824,1204
1749976369.4063559,1388
1749976369.4064295,1765
1749976369.406504,2129
1749976369.4065971,2316
1749976369.406692,2298
1749976369.4067633,2096
1749976369.4068365,1790
1749976369.4069095,1493
1749976369.4070113,1279
1749976369.408461,1194
1749976369.4504938,1335
1749976369.450855,1685
1749976369.4530122,2066
1749976369.4530876,2291
1749976369.4531922,2318
1749976369.4532683,2149
1749976369.45334,1858
1749976369.4534109,1545
1749976369.453482,1307
1749976369.4535537,1188
1749976369.4536252,1290
1749976369.4536946,1615
1749976369.4537663,2009
1749976369.4538379,2259
1749976369.4640746,2313
1749976369.4657955,2173
1749976369.5140288,1901
1749976369.5161736,1583
1749976369.516257,1325
1749976369.5163307,1171
1749976369.5833952,1225
1749976369.5840342,1518
1749976369.6033762,1919
1749976369.6035821,2203
1749976369.603671,2295
1749976369.6037486,2192
1749976369.6038258,1943
1749976369.6039035,1628
1749976369.603981,1357
1749976369.6040595,1183
1749976369.604136,1197
1749976369.604219,1454
1749976369.6042962,1851
1749976369.6043735,2165
1749976369.6044502,2292
1749976369.6045275,2226
1749976369.604604,2001
1749976369.6046808,1689
1749976369.6047578,1401
1749976369.6048346,1203
1749976369.6049116,1175
1749976369.6049895,1394
1749976369.62746,1784
1749976369.627541,2130
1749976369.627614,2291
1749976369.6276853,2258
1749976369.627756,2054
1749976369.6278274,1751
1749976369.6278992,1457
1749976369.627971,1243
1749976369.6280422,1175
1749976369.6281135,1346
1749976369.6281838,1718
1749976369.6282558,2090
1749976369.6283278,2288
1749976369.6283994,2284
1749976369.6284704,2092
1749976369.6285415,1789
1749976369.6286137,1484
1749976369.6286838,1260
1749976369.6287704,1162
1749976369.6288424,1288
1749976369.6289139,1626
1749976369.6289852,2011
1749976369.6290565,2247
1749976369.6291275,2289
1749976369.6292057,2136
1749976369.629277,1852
1749976369.6293483,1535
1749976369.6294193,1288
1749976369.6294928,1155
1749976369.6295652,1238
1749976369.6296368,1552
1749976369.6297085,1953
1749976369.6357129,2224
1749976369.636981,2299
1749976369.6374788,2175
1749976369.6378663,1909
1749976369.6382346,1591
1749976369.6385946,1333
1749976369.6389976,1178
1749976369.6393664,1222
1749976369.6397398,1503
1749976369.640123,1904
1749976369.6405053,2201
1749976369.6409478,2305
1749976369.641328,2211
1749976369.6418452,1964
1749976369.6422663,1647
1749976369.6426356,1373
1749976369.6496804,1195
1749976369.6501675,1197
1749976369.6509278,1441
1749976369.6950052,1838
1749976369.7226424,2169
1749976369.7366645,2313
1749976369.7367544,2261
1749976369.764673,2040
1749976369.7661061,1725
1749976369.7693868,1434
1749976369.772289,1235
1749976369.7724102,1199
1749976369.7797706,1404
1749976369.7800357,1788
1749976369.8168914,2139
1749976369.8339577,2310
1749976369.834621,2285
1749976369.8347297,2084
1749976369.834806,1775
1749976369.83488,1470
1749976369.834955,1252
1749976369.8350294,1182
1749976369.8351038,1351
1749976369.8351786,1720
1749976369.8352532,2097
1749976369.835327,2307
1749976369.8354115,2325
1749976369.835563,2156
1749976369.9001236,1865
1749976369.9193394,1551
1749976370.0064244,1314
1749976370.0069387,1207
1749976370.0070732,1325
1749976370.0073361,1654
1749976370.0079648,2033
1749976370.0080764,2265
1749976370.0081854,2312
1749976370.009174,2172
1749976370.0115986,1898
1749976370.0121179,1580
1749976370.0122454,1329
1749976370.0123491,1197
1749976370.0124586,1283
1749976370.013737,1603
1749976370.0141008,2013
1749976370.0155625,2293
1749976370.021473,2374
1749976370.0223978,2255
1749976370.025335,1991
1749976370.025486,1670
1749976370.025893,1406
1749976370.0260026,1244
1749976370.0261095,1273
1749976370.0265934,1539
1749976370.0266578,1940
1749976370.0268319,2253
1749976370.0272331,2377
1749976370.0274308,2299
1749976370.0280116,2057
1749976370.0284457,1734
1749976370.028823,1453
1749976370.0294938,1268
1749976370.0524728,1255
1749976370.1090004,1481
1749976370.1091013,1869
1749976370.1091824,2208
1749976370.1092613,2366
1749976370.109415,2325
1749976370.1117113,2107
1749976370.1117957,1788
1749976370.1119103,1485
1749976370.1119897,1273
1749976370.1120784,1216
1749976370.1121588,1402
1749976370.112261,1781
1749976370.1209643,2148
1749976370.12105,2338
1749976370.1211298,2327
1749976370.1212091,2132
1749976370.1212876,1829
1749976370.1213663,1525
1749976370.121444,1301
1749976370.1215227,1206
1749976370.1216013,1342
1749976370.1216795,1693
1749976370.121758,2081
1749976370.1218357,2308
1749976370.1219144,2332
1749976370.1219938,2161
1749976370.1220958,1870
1749976370.1221752,1561
1749976370.122254,1326
1749976370.1223314,1202
1749976370.1224096,1291
1749976370.1224878,1608
1749976370.122566,2006
1749976370.122644,2269
1749976370.1227276,2334
1749976370.1227942,2198
1749976370.1228719,1927
1749976370.1229496,1614
1749976370.123027,1363
1749976370.1231048,1210
1749976370.123183,1255
1749976370.1232617,1539
1749976370.1233392,1944
1749976370.123417,2241
1749976370.1234949,2338
1749976370.123573,2230
1749976370.1236508,1973
1749976370.1237283,1654
1749976370.1238062,1386
1749976370.1238837,1211
1749976370.123962,1216
1749976370.1240396,1466
1749976370.1241171,1870
1749976370.1241949,2199
1749976370.1242723,2334
1749976370.12435,2265
1749976370.1244278,2034
1749976370.124505,1722
1749976370.124583,1440
1749976370.1246605,1243
1749976370.1247377,1203
1749976370.1248155,1406
1749976370.124893,1792
1749976370.124971,2147
1749976370.1250486,2323
1749976370.1251264,2297
1749976370.1252043,2090
1749976370.1252818,1779
1749976370.1253593,1477
1749976370.1280487,1259
1749976370.1282606,1185
1749976370.128462,1349
1749976370.1286483,1714
1749976370.128848,2085
1749976370.174386,2287
1749976370.1778138,2295
1749976370.1961944,2119
1749976370.1963074,1827
1749976370.1978102,1520
1749976370.197917,1285
1749976370.19802,1176
1749976370.1981232,1296
1749976370.198226,1639
1749976370.198328,2033
1749976370.1984308,2274
1749976370.1985335,2317
1749976370.1987216,2167
1749976370.1991546,1888
1749976370.1998622,1575
1749976370.199969,1329
1749976370.2000725,1192
1749976370.2001755,1268
1749976370.2002778,1577
1749976370.2003803,1976
1749976370.2004828,2247
1749976370.2005854,2322
1749976370.2006881,2201
1749976370.200791,1938
1749976370.2008939,1621
1749976370.2009864,1359
1749976370.2010608,1199
1749976370.2011359,1236
1749976370.2012107,1515
1749976370.2012854,1922
1749976370.2013645,2231
1749976370.2014399,2346
1749976370.2015147,2258
1749976370.2015896,2012
1749976370.2016637,1690
1749976370.2017384,1412
1749976370.2018125,1231
1749976370.2018886,1226
1749976370.201963,1463
1749976370.2020407,1856
1749976370.2359493,2186
1749976370.2360356,2331
1749976370.2438667,2280
1749976370.244945,2059
1749976370.2450852,1742
1749976370.2599485,1444
1749976370.2608812,1235
1749976370.2621465,1185
1749976370.2622538,1382
1749976370.2623682,1770
1749976370.2624724,2136
1749976370.2626595,2319
1749976370.2630165,2300
1749976370.2631233,2101
1749976370.2632284,1796
1749976370.2633324,1495
1749976370.2634804,1275
1749976370.2635849,1189
1749976370.2636878,1338
1749976370.263791,1698
1749976370.263894,2081
1749976370.263997,2299
1749976370.2640998,2319
1749976370.2642033,2150
1749976370.2643127,1862
1749976370.2644162,1553
1749976370.2645202,1314
1749976370.264623,1191
1749976370.2647257,1293
1749976370.2648292,1626
1749976370.3059332,2029
1749976370.306422,2284
1749976370.3066182,2336
1749976370.306787,2190
1749976370.3069363,1914
1749976370.3070843,1603
1749976370.3072472,1355
1749976370.307396,1211
1749976370.3075614,1271
1749976370.3077097,1567
1749976370.3078568,1971
1749976370.3080182,2256
1749976370.3081653,2342
1749976370.3083127,2227
1749976370.308474,1969
1749976370.308622,1651
1749976370.3087943,1382
1749976370.3089585,1206
1749976370.3091047,1216
1749976370.309251,1473
1749976370.3094132,1877
1749976370.3095672,2196
1749976370.309714,2318
1749976370.3098755,2237
1749976370.3100224,1996
1749976370.3102758,1679
1749976370.310385,1398
1749976370.310493,1207
1749976370.310601,1182
1749976370.3107088,1403
1749976370.3108168,1796
1749976370.3109245,2143
1749976370.3110335,2301
1749976370.311142,2260
1749976370.311251,2048
1749976370.311359,1742
1749976370.3114786,1447
1749976370.3115873,1228
1749976370.3116963,1154
1749976370.3118045,1324
1749976370.3119142,1699
1749976370.3120227,2073
1749976370.3121493,2270
1749976370.3122578,2265
1749976370.3123655,2078
1749976370.312488,1784
1749976370.3125966,1484
1749976370.312704,1258
1749976370.3128126,1160
1749976370.3129313,1298
1749976370.3130395,1655
1749976370.313148,2040
1749976370.3132563,2248
1749976370.3133764,2244
1749976370.3135002,2051
1749976370.313612,1749
1749976370.313729,1429
1749976370.313851,1172
1749976370.3199205,1020
1749976370.3200312,1088
1749976370.3201373,1406
1749976370.3202417,1826
1749976370.3203459,2118
1749976370.3204525,2202
1749976370.3205605,2075
1749976370.3324142,1806
1749976370.3805823,1491
1749976370.3806746,1236
1749976370.433677,1080
1749976370.4440439,1123
1749976370.4441354,1412
1749976370.4442077,1830
1749976370.4786046,2142
1749976370.4786806,2252
1749976370.4832761,2154
1749976370.4833448,1909
1749976370.483408,1603
1749976370.4834762,1339
1749976370.483546,1159
1749976370.4836342,1151
1749976370.504981,1392
1749976370.5050573,1790
1749976370.5051253,2102
1749976370.505195,2197
1749976370.505262,2080
1749976370.5053277,1815
1749976370.5054111,1493
1749976370.5055254,1206
1749976370.5055952,991
1749976370.5056617,923
1749976370.505727,1115
1749976370.5057917,1520
1749976370.5058596,1906
1749976370.5059252,2088
1749976370.5059922,2038
1749976370.5060577,1793
1749976370.5061266,1451
1749976370.5061917,1121
1749976370.5062587,869
1749976370.5063283,753
1749976370.5063944,887
1749976370.5064602,1252
1749976370.5065224,1650
1749976370.5065808,1887
1749976370.5066466,1923
1749976370.5067117,1775
1749976370.5067775,1518
1749976370.5068429,1241
1749976370.5069094,1021
1749976370.506975,913
1749976370.507041,1037
1749976370.5071063,1393
1749976370.5071723,1794
1749976370.5072374,2009
1749976370.507303,1997
1749976370.507361,1801
1749976370.5074255,1516
1749976370.507492,1225
1749976370.5075583,991
1749976370.5076244,836
1749976370.5076919,886
1749976370.507758,1200
1749976370.5078237,1648
1749976370.5078897,1981
1749976370.507956,2099
1749976370.5080214,2000
1749976370.5080953,1757
1749976370.5081613,1465
1749976370.5082264,1224
1749976370.5082915,1067
1749976370.5083568,1102
1749976370.508422,1394
1749976370.5084894,1834
1749976370.508554,2176
1749976370.5086203,2302
1749976370.5086863,2216
1749976370.5087752,1983
1749976370.5088408,1693
1749976370.5089068,1439
1749976370.508973,1257
1749976370.5092156,1235
1749976370.5092804,1470
1749976370.5093455,1894
1749976370.509412,2264
1749976370.5094776,2423
1749976370.5095432,2362
1749976370.5096092,2142
1749976370.509676,1855
1749976370.509742,1596
1749976370.5098073,1402
1749976370.5098724,1338
1749976370.5099378,1521
1749976370.5100038,1921
1749976370.5100799,2318
1749976370.5101445,2519
1749976370.5102127,2494
1749976370.5102782,2286
1749976370.510344,1991
1749976370.5104094,1706
1749976370.510475,1488
1749976370.5105402,1385
1749976370.5106008,1521
1749976370.510666,1895
1749976370.5107312,2315
1749976370.5107965,2554
1749976370.510862,2557
1749976370.5109277,2350
1749976370.510993,2029
1749976370.511061,1702
1749976370.5111263,1448
1749976370.5111916,1296
1749976370.5112572,1357
1749976370.511319,1658
1749976370.5113776,2053
1749976370.5114434,2318
1749976370.5115094,2385
1749976370.5115747,2254
1749976370.51164,1996
1749976370.5117073,1701
1749976370.5117729,1464
1749976370.5118387,1321
1749976370.5119047,1385
1749976370.51197,1702
1749976370.5120418,2140
1749976370.5257409,2448
1749976370.566921,2529
1749976370.5868783,2396
1749976370.586997,2131
1749976370.587072,1827
1749976370.5871463,1573
1749976370.5872595,1398
1749976370.5874467,1399
1749976370.5875194,1660
1749976370.5875921,2090
1749976370.5877995,2439
1749976370.5878787,2569
1749976370.588045,2478
1749976370.588117,2232
1749976370.5881882,1924
1749976370.5882597,1651
1749976370.5899494,1447
1749976370.5900476,1392
1749976370.5913196,1596
1749976370.6329165,2005
1749976370.6718554,2381
1749976370.6731398,2551
1749976370.67323,2496
1749976370.673308,2270
1749976370.6733856,1970
1749976370.6734614,1693
1749976370.673561,1483
1749976370.713613,1399
1749976370.7500784,1560
1749976370.77013,1942
1749976370.7895448,2324
1749976370.8025105,2495
1749976370.8044486,2428
1749976370.8045616,2175
1749976370.804665,1844
1749976370.804768,1532
1749976370.8048706,1288
1749976370.8049874,1149
1749976370.8050902,1249
1749976370.8051937,1606
1749976370.8058414,2042
1749976370.8059483,2316
1749976370.8061557,2361
1749976370.8062623,2198
1749976370.8063657,1920
1749976370.808841,1625
1749976370.814228,1389
1749976370.814336,1247
1749976370.8144412,1322
1749976370.8145459,1653
1749976370.8147495,2088
1749976370.8148646,2382
1749976370.814968,2450
1749976370.8150716,2310
1749976370.8151743,2046
1749976370.815277,1750
1749976370.8154957,1507
1749976370.815601,1344
1749976370.8157043,1372
1749976370.8158069,1658
1749976370.8159096,2087
1749976370.8160133,2410
1749976370.8161163,2513
1749976370.816221,2402
1749976370.816324,2151
1749976370.8164275,1852
1749976370.8165302,1595
1749976370.8166335,1409
1749976370.8167365,1388
1749976370.8195653,1626
1749976370.8196714,2045
1749976370.8409977,2401
1749976370.847716,2543
1749976370.8478293,2464
1749976370.847934,2224
1749976370.8480384,1917
1749976370.848142,1640
1749976370.8482597,1432
1749976370.8484075,1368
1749976370.8485777,1563
1749976370.8486824,1970
1749976370.8488033,2356
1749976370.848907,2535
1749976370.8490107,2488
1749976370.8491142,2266
1749976370.8492177,1966
1749976370.8493202,1682
1749976370.8494236,1461
1749976370.8495266,1357
1749976370.8496296,1496
1749976370.8497326,1872
1749976370.8498356,2282
1749976370.8499384,2508
1749976370.8500414,2507
1749976370.8501437,2312
1749976370.8522828,2020
1749976370.852393,1727
1749976370.8524976,1497
1749976370.86266,1366
1749976370.8627403,1460
1749976370.87939,1801
1749976370.9094393,2220
1749976370.9259305,2478
1749976370.93718,2514
1749976370.9828825,2346
1749976370.984857,2067
1749976371.0294523,1767
1749976371.0299172,1526
1749976371.0303264,1372
1749976371.0304205,1424
1749976371.0307002,1734
1749976371.0307717,2162
1749976371.0308404,2459
1749976371.0309107,2535
1749976371.0309803,2401
1749976371.0310504,2139
1749976371.0311294,1836
1749976371.0312,1580
1749976371.0312676,1398
1749976371.0313354,1399
1749976371.0314708,1664
1749976371.0315435,2093
1749976371.0316129,2430
1749976371.031681,2546
1749976371.031751,2441
1749976371.031819,2190
1749976371.0318878,1888
1749976371.0319555,1628
1749976371.0320237,1437
1749976371.032107,1401
1749976371.0321748,1621
1749976371.0322464,2031
1749976371.0323153,2390
1749976371.0323837,2537
1749976371.032451,2466
1749976371.032519,2237
1749976371.032587,1939
1749976371.0326576,1660
1749976371.0327246,1439
1749976371.032794,1350
1749976371.032863,1524
1749976371.0329318,1930
1749976371.0329998,2336
1749976371.0330708,2532
1749976371.0331385,2493
1749976371.0332067,2274
1749976371.0332773,1978
1749976371.0333447,1693
1749976371.0334132,1466
1749976371.0334806,1343
1749976371.0335484,1464
1749976371.0336158,1834
1749976371.0336866,2255
1749976371.033758,2490
1749976371.0338266,2492
1749976371.0338953,2299
1749976371.033963,2013
1749976371.0340314,1721
1749976371.0340986,1484
1749976371.0341678,1332
1749976371.0342386,1399
1749976371.034309,1727
1749976371.0343778,2153
1749976371.0344455,2427
1749976371.034515,2472
1749976371.0346906,2313
1749976371.0347629,2042
1749976371.0348322,1745
1749976371.0349033,1497
1749976371.0349712,1325
1749976371.0350673,1354
1749976371.0351362,1650
1749976371.0352046,2086
1749976371.0352747,2396
1749976371.0353456,2476
1749976371.035434,2341
1749976371.0355196,2079
1749976371.0355873,1778
1749976371.0356543,1519
1749976371.0357225,1324
1749976371.0357897,1301
1749976371.0358577,1550
1749976371.0400789,1984
1749976371.0402484,2343
1749976371.041083,2475
1749976371.041337,2377
1749976371.046579,2125
1749976371.046644,1820
1749976371.0467157,1555
1749976371.0467894,1354
1749976371.0468624,1294
1749976371.046933,1493
1749976371.047005,1904
1749976371.0470753,2287
1749976371.0471473,2459
1749976371.0472198,2400
1749976371.0472913,2170
1749976371.0473628,1871
1749976371.0474238,1598
1749976371.0474873,1387
1749976371.0475585,1292
1749976371.0476303,1439
1749976371.0477018,1817
1749976371.0477748,2218
1749976371.0478463,2431
1749976371.0479186,2418
1749976371.0479906,2216
1749976371.0480611,1922
1749976371.0481315,1632
1749976371.0481944,1404
1749976371.048265,1279
1749976371.075199,1385
1749976371.0752823,1737
1749976371.0922546,2155
1749976371.0923462,2404
1749976371.0924199,2427
1749976371.092492,2254
1749976371.0925639,1976
1749976371.092635,1684
1749976371.0927072,1447
1749976371.09278,1292
1749976371.0928504,1347
1749976371.0929203,1658
1749976371.0929866,2079
1749976371.0930598,2360
1749976371.0931332,2415
1749976371.093205,2264
1749976371.093278,1997
1749976371.09335,1703
1749976371.093422,1458
1749976371.0934927,1286
1749976371.0935626,1299
1749976371.0936344,1575
1749976371.1024594,2005
1749976371.102844,2327
1749976371.1031275,2422
1749976371.1032732,2302
1749976371.1075723,2048
1749976371.1077702,1751
1749976371.1079025,1495
1749976371.1080332,1302
1749976371.1098557,1268
1749976371.1099608,1496
1749976371.110062,1914
1749976371.1101632,2271
1749976371.1102645,2410
1749976371.1103654,2326
1749976371.110466,2086
1749976371.1105685,1785
1749976371.1106691,1515
1749976371.1108692,1310
1749976371.1109715,1241
1749976371.1110725,1425
1749976371.1111736,1824
1749976371.1112747,2208
1749976371.1114712,2391
1749976371.1115735,2351
1749976371.1116846,2137
1749976371.1117852,1844
1749976371.1118863,1566
1749976371.1128392,1348
1749976371.112942,1240
1749976371.113044,1370
1749976371.1133027,1738
1749976371.113428,2145
1749976371.1135309,2371
1749976371.113633,2371
1749976371.1137419,2177
1749976371.113844,1889
1749976371.113945,1601
1749976371.1166475,1374
1749976371.11688,1241
1749976371.1169991,1326
1749976371.1230319,1658
1749976371.1231432,2075
1749976371.1232545,2336
1749976371.123358,2372
1749976371.1234615,2206
1749976371.1258998,1930
1749976371.1259754,1634
1749976371.1260455,1394
1749976371.1261158,1234
1749976371.1261857,1274
1749976371.1262555,1573
1749976371.126325,2002
1749976371.126395,2307
1749976371.1264653,2386
1749976371.126535,2249
1749976371.1268508,1980
1749976371.126928,1676
1749976371.127,1424
1749976371.1270726,1247
1749976371.127144,1242
1749976371.1272159,1492
1749976371.1272876,1908
1749976371.1273584,2241
1749976371.1274211,2360
1749976371.1274858,2260
1749976371.1275568,2011
1749976371.1276283,1709
1749976371.1276991,1451
1749976371.1277697,1265
1749976371.1278398,1221
1749976371.1279092,1423
1749976371.127979,1817
1749976371.1280484,2177
1749976371.1281183,2338
1749976371.1281881,2281
1749976371.1282578,2051
1749976371.1283274,1744
1749976371.1283975,1464
1749976371.128467,1258
1749976371.1285377,1184
1749976371.1808748,1355
1749976371.1865852,1742
1749976371.2097166,2130
1749976371.2338998,2321
1749976371.2340233,2288
1749976371.2341363,2075
1749976371.2342463,1778
1749976371.2343585,1494
1749976371.234466,1273
1749976371.234563,1155
1749976371.234669,1266
1749976371.234781,1620
1749976371.2348933,2031
1749976371.2350059,2268
1749976371.2351305,2275
1749976371.235244,2082
1749976371.2353432,1788
1749976371.2650068,1491
1749976371.2666113,1255
1749976371.2670302,1102
1749976371.269269,1159
1749976371.2693768,1467
1749976371.2694676,1876
1749976371.2695587,2130
1749976371.2911143,2143
1749976371.2912743,1936
1749976371.291355,1609
1749976371.2914207,1263
1749976371.2915313,982
1749976371.2916157,782
1749976371.2916944,769
1749976371.2917717,1012
1749976371.2918491,1402
1749976371.2919266,1693
1749976371.2920043,1775
1749976371.2920916,1649
1749976371.2921693,1384
1749976371.292247,1069
1749976371.2923245,798
1749976371.2924016,604
1749976371.292479,584
1749976371.2925565,825
1749976371.2926435,1238
1749976371.29272,1571
1749976371.2927973,1682
1749976371.2928746,1572
1749976371.292951,1310
1749976371.2930279,987
1749976371.293105,701
1749976371.2931817,487
1749976371.293259,419
1749976371.2933366,608
1749976371.2934139,1005
1749976371.2934911,1378
1749976371.2935684,1549
1749976371.2936456,1500
1749976371.2937226,1277
1749976371.2937994,973
1749976371.2938764,684
1749976371.2939534,461
1749976371.2940307,362
1749976371.294107,510
1749976371.294184,888
1749976371.294261,1288
1749976371.2943375,1502
1749976371.2944145,1496
1749976371.294492,1310
1749976371.294576,1031
1749976371.2946348,750
1749976371.2947114,528
1749976371.2947881,405
1749976371.294865,512
1749976371.2949417,866
1749976371.295018,1291
1749976371.2950947,1550
1749976371.2951715,1584
1749976371.2952483,1421
1749976371.295325,1149
1749976371.2953913,860
1749976371.2954636,629
1749976371.2955425,484
1749976371.2956197,547
1749976371.295697,865
1749976371.2957747,1297
1749976371.295852,1594
1749976371.2959294,1668
1749976371.2960079,1535
1749976371.2960854,1279
1749976371.2961624,990
1749976371.2962396,749
1749976371.2963169,581
1749976371.2963939,595
1749976371.3448205,872
1749976371.367781,1309
1749976371.368128,1653
1749976371.3684578,1776
1749976371.3688185,1679
1749976371.3691587,1438
1749976371.3694987,1145
1749976371.3698354,894
1749976371.3701644,715
1749976371.370621,696
1749976371.3709645,940
1749976371.376501,1375
1749976371.3779354,1750
1749976371.3900602,1906
1749976371.3911448,1836
1749976371.427228,1610
1749976371.4339564,1324
1749976371.4515967,1065
1749976371.4881403,865
1749976371.494207,792
1749976371.4943051,970
1749976371.4943724,1372
1749976371.494439,1772
1749976371.4945035,1974
1749976371.494563,1952
1749976371.4946263,1752
1749976371.4946918,1468
1749976371.4947584,1191
1749976371.4948254,973
1749976371.4948912,868
1749976371.494957,1008
1749976371.495022,1391
1749976371.4951167,1813
1749976371.4951823,2049
1749976371.4952474,2061
1749976371.4953094,1891
1749976371.4953687,1638
1749976371.495532,1383
1749976371.4956005,1180
1749976371.4956665,1062
1749976371.495732,1161
1749976371.4957972,1518
1749976371.4958615,1973
1749976371.495928,2278
1749976371.4959936,2357
1749976371.496059,2232
1749976371.4961243,1994
1749976371.49619,1734
1749976371.4962556,1527
1749976371.496321,1395
1749976371.496386,1457
1749976371.4964511,1773
1749976371.496516,2218
1749976371.4965813,2530
1749976371.4966476,2603
1749976371.4967127,2452
1749976371.496778,2169
1749976371.4968665,1854
1749976371.4969325,1595
1749976371.496999,1406
1749976371.4970691,1381
1749976371.4971347,1612
1749976371.4972,2021
1749976371.4974427,2365
1749976371.497508,2507
1749976371.4975734,2442
1749976371.497647,2231
1749976371.497713,1962
1749976371.4977782,1728
1749976371.4978433,1557
1749976371.4979079,1533
1749976371.497973,1764
1749976371.4980378,2195
1749976371.4981027,2581
1749976371.4981682,2743
1749976371.498234,2667
1749976371.4982991,2416
1749976371.4983644,2091
1749976371.4984295,1792
1749976371.4984934,1559
1749976371.498552,1449
1749976371.4986193,1587
1749976371.4987736,1958
1749976371.4988425,2352
1749976371.498909,2557
1749976371.498975,2534
1749976371.4990482,2321
1749976371.4991136,2020
1749976371.4991784,1731
1749976371.4992442,1509
1749976371.4993064,1388
1749976371.499367,1495
1749976371.4994338,1847
1749976371.4994993,2271
1749976371.4995646,2534
1749976371.4996297,2572
1749976371.4996955,2403
1749976371.4997606,2122
1749976371.4998262,1827
1749976371.4998922,1593
1749976371.4999578,1444
1749976371.5000231,1502
1749976371.500089,1813
1749976371.5001547,2241
1749976371.50022,2544
1749976371.5002856,2632
1749976371.5003507,2507
1749976371.5004165,2251
1749976371.5004818,1960
1749976371.5005476,1723
1749976371.5006135,1566
1749976371.5006785,1595
1749976371.5007436,1874
1749976371.5008104,2289
1749976371.500876,2587
1749976371.5009446,2658
1749976371.5010178,2514
1749976371.5010834,2241
1749976371.5011475,1935
1749976371.5012121,1684
1749976371.5012767,1505
1749976371.5013413,1486
1749976371.5014067,1728
1749976371.5014722,2165
1749976371.5015383,2552
1749976371.5016046,2732
1749976371.5016718,2688
1749976371.5017374,2473
1749976371.501803,2184
1749976371.5018692,1922
1749976371.5019345,1726
1749976371.5020003,1670
1749976371.5020769,1866
1749976371.5021462,2265
1749976371.502212,2634
1749976371.502278,2787
1749976371.5023432,2709
1749976371.5024097,2458
1749976371.502475,2134
1749976371.5025408,1829
1749976371.5026069,1591
1749976371.502673,1472
1749976371.5027387,1600
1749976371.5028038,1973
1749976371.5028698,2389
1749976371.5029347,2630
1749976371.5030167,2651
1749976371.5030823,2485
1749976371.503148,2227
1749976371.5032136,1967
1749976371.5032787,1762
1749976371.5033462,1645
1749976371.5034137,1745
1749976371.503481,2090
1749976371.5035467,2507
1749976371.503615,2751
1749976371.5036862,2754
1749976371.5037572,2551
1749976371.5038235,2248
1749976371.50389,1944
1749976371.503956,1707
1749976371.5040233,1554
1749976371.5040908,1602
1749976371.5041564,1909
1749976371.5042224,2347
1749976371.5042887,2657
1749976371.5043566,2733
1749976371.504422,2583
1749976371.5044878,2293
1749976371.5045528,1959
1749976371.5046184,1676
1749976371.5046844,1470
1749976371.5047498,1447
1749976371.5048156,1687
1749976371.5048814,2089
1749976371.5049646,2407
1749976371.5050306,2519
1749976371.505097,2430
1749976371.5051625,2206
1749976371.5052278,1929
1749976371.5052931,1687
1749976371.505359,1512
1749976371.5230434,1495
1749976371.5358603,1737
1749976371.5359423,2166
1749976371.536016,2534
1749976371.536089,2682
1749976371.5361607,2611
1749976371.5362334,2385
1749976371.5363054,2091
1749976371.5363865,1817
1749976371.5364585,1602
1749976371.5365305,1519
1749976371.6132936,1693
1749976371.623339,2091
1749976371.6234467,2481
1749976371.6235347,2662
1749976371.6237683,2608
1749976371.6238763,2369
1749976371.6263435,2046
1749976371.6264346,1736
1749976371.6265085,1490
1749976371.6265807,1352
1749976371.6267252,1451
1749976371.626806,1792
1749976371.6268935,2190
1749976371.6269782,2426
1749976371.6270604,2452
1749976371.627137,2296
1749976371.6272228,2041
1749976371.6273024,1773
1749976371.6273835,1558
1749976371.6274598,1434
1749976371.6275387,1530
1749976371.6276188,1879
1749976371.6276996,2314
1749976371.627785,2582
1749976371.6278675,2611
1749976371.6279533,2427
1749976371.6280327,2126
1749976371.6281133,1801
1749976371.6282074,1532
1749976371.6282923,1342
1749976371.6283717,1350
1749976371.6284518,1620
1749976371.6285317,2032
1749976371.6286201,2336
1749976371.6287038,2429
1749976371.6288073,2325
1749976371.6288948,2100
1749976371.6289747,1835
1749976371.6290605,1610
1749976371.6291401,1447
1749976371.6292212,1450
1749976371.6293101,1717
1749976371.629469,2164
1749976371.6295533,2534
1749976371.6296484,2678
1749976371.6297307,2594
1749976371.6298552,2361
1749976371.6299396,2082
1749976371.6300228,1847
1749976371.630106,1671
1749976371.630189,1621
1749976371.6356237,1817
1749976371.641064,2220
1749976371.6411417,2597
1749976371.6412153,2756
1749976371.641287,2672
1749976371.641359,2408
1749976371.6414309,2076
1749976371.6415026,1776
1749976371.6415749,1544
1749976371.6416464,1426
1749976371.641718,1552
1749976371.6417897,1915
1749976371.6418612,2304
1749976371.6419327,2500
1749976371.6420035,2466
1749976371.642088,2255
1749976371.6421602,1972
1749976371.6422317,1703
1749976371.6423037,1487
1749976371.6423755,1355
1749976371.6424468,1448
1749976371.6425183,1805
1749976371.642596,2250
1749976371.6426568,2535
1749976371.6427286,2585
1749976371.6427996,2425
1749976371.6428702,2155
1749976371.642942,1870
1749976371.6430132,1638
1749976371.6430843,1485
1749976371.6431558,1534
1749976371.6432269,1837
1749976371.6432986,2249
1749976371.6433656,2516
1749976371.643425,2549
1749976371.6434963,2369
1749976371.6435678,2073
1749976371.6436386,1753
1749976371.64371,1487
1749976371.6437817,1293
1749976371.6438522,1281
1749976371.643924,1531
1749976371.643995,1942
1749976371.6440668,2262
1749976371.7099853,2370
1749976371.761356,2273
1749976371.7645028,2047
1749976371.764615,1776
1749976371.795942,1542
1749976371.8331306,1368
1749976371.8380892,1352
1749976371.8398814,1600
1749976371.8405757,2042
1749976371.8412383,2424
1749976371.8419044,2584
1749976371.8427224,2516
1749976371.8435185,2290
1749976371.8441322,2006
1749976371.844715,1754
1749976371.8453376,1567
1749976371.8460436,1509
1749976371.8717499,1700
1749976371.8718498,2102
1749976371.8719363,2485
1749976371.8720238,2655
1749976371.872118,2590
1749976371.872216,2342
1749976371.8722982,2013
1749976371.8723803,1699
1749976371.872462,1451
1749976371.8725436,1317
1749976371.8777037,1423
1749976371.9372163,1769
1749976371.968849,2162
1749976371.969488,2387
1749976371.9696002,2402
1749976371.9701676,2235
1749976371.9702454,1973
1749976371.970321,1702
1749976371.9703965,1486
1749976371.9704711,1367
1749976371.970547,1472
1749976371.970606,1830
1749976371.9706762,2271
1749976371.97075,2550
1749976371.9708242,2602
1749976371.9708982,2455
1749976371.9709806,2200
1749976371.971054,1920
1749976371.9711282,1688
1749976371.9712021,1529
1749976371.9712758,1570
1749976371.9713497,1872
1749976371.9714231,2299
1749976371.9714968,2585
1749976371.9715705,2631
1749976371.9716442,2463
1749976371.971717,2183
1749976371.9717906,1883
1749976371.971865,1633
1749976371.9719388,1444
1749976371.9720128,1422
1749976371.9721067,1671
1749976371.972206,2103
1749976371.972285,2452
1749976371.9723635,2567
1749976371.972443,2442
1749976371.9725213,2161
1749976371.9725978,1828
1749976371.9726758,1536
1749976371.9727552,1306
1749976371.9728336,1217
1749976371.97291,1388
1749976371.9729843,1776
1749976371.9730585,2150
1749976371.9731328,2334
1749976371.9732065,2303
1749976371.973281,2104
1749976371.9733555,1832
1749976371.97343,1586
1749976371.9735043,1407
1749976371.9735782,1354
1749976371.973652,1539
1749976371.9737265,1933
1749976371.9738004,2320
1749976371.9738753,2500
1749976371.9739494,2446
1749976371.9740233,2205
1749976371.9740973,1876
1749976371.9741714,1555
1749976371.9742453,1303
1749976371.9743197,1163
1749976371.9743934,1262
1749976371.97447,1606
1749976371.9745424,2011
1749976371.9746084,2251
1749976371.9746823,2280
1749976371.974757,2125
1749976371.9748309,1874
1749976371.9749076,1605
1749976371.9749813,1386
1749976371.9750557,1251
1749976371.9751294,1339
1749976371.9752233,1693
1749976371.9753006,2152
1749976371.975366,2448
1749976371.9754515,2492
1749976371.9755282,2310
1749976371.9756045,2008
1749976371.9756823,1687
1749976372.073062,1422
1749976372.0731814,1228
1749976372.0732863,1219
1749976372.0733912,1475
1749976372.0755057,1893
1749976372.075619,2221
1749976372.0757234,2339
1749976372.0758271,2248
1749976372.0759292,2024
1749976372.0760322,1757
1749976372.0761356,1532
1749976372.0762386,1369
1749976372.0763414,1362
1749976372.0764449,1610
1749976372.0765493,2035
1749976372.0766523,2382
1749976372.0767567,2498
1749976372.0768633,2379
1749976372.0769653,2098
1749976372.077068,1759
1749976372.0771847,1463
1749976372.077289,1246
1749976372.0773933,1180
1749976372.0774963,1373
1749976372.0775995,1781
1749976372.077702,2172
1749976372.0778048,2367
1749976372.0779078,2349
1749976372.0780108,2161
1749976372.0852084,1891
1749976372.0852854,1627
1749976372.085359,1415
1749976372.1043992,1317
1749976372.1045291,1463
1749976372.1046588,1840
1749976372.1047792,2234
1749976372.1048975,2427
1749976372.1050162,2385
1749976372.1051354,2159
1749976372.1057239,1855
1749976372.1077938,1564
1749976372.108138,1337
1749976372.108503,1204
1749976372.1088753,1299
1749976372.109191,1654
1749976372.1095028,2097
1749976372.1098034,2385
1749976372.110109,2442
1749976372.1104133,2291
1749976372.1124895,2031
1749976372.1126254,1757
1749976372.1127427,1540
1749976372.1128201,1402
1749976372.112898,1462
1749976372.1141183,1774
1749976372.114203,2202
1749976372.1142788,2494
1749976372.1143541,2560
1749976372.114429,2419
1749976372.114508,2158
1749976372.1145797,1865
1749976372.1146455,1621
1749976372.1147208,1450
1749976372.114795,1469
1749976372.11487,1756
1749976372.114945,2200
1749976372.1150196,2530
1749976372.1150951,2620
1749976372.1151698,2490
1749976372.1152444,2230
1749976372.1153188,1932
1749976372.1153827,1671
1749976372.1155708,1465
1749976372.1156797,1411
1749976372.1157858,1633
1749976372.1159263,2071
1749976372.116033,2466
1749976372.1161368,2639
1749976372.1162407,2577
1749976372.116343,2352
1749976372.116451,2068
1749976372.1165543,1814
1749976372.1166568,1615
1749976372.1167598,1534
1749976372.1168942,1698
1749976372.1363866,2088
1749976372.1470115,2482
1749976372.1470904,2680
1749976372.147163,2652
1749976372.1472356,2447
1749976372.1473072,2163
1749976372.1475146,1894
1749976372.1475878,1681
1749976372.1476607,1570
1749976372.1477334,1693
1749976372.1478055,2059
1749976372.1478772,2473
1749976372.1479516,2706
1749976372.1480234,2710
1749976372.1480951,2521
1749976372.1481674,2241
1749976372.1482396,1960
1749976372.1483111,1736
1749976372.1483834,1597
1749976372.1484592,1672
1749976372.148534,1997
1749976372.1486053,2413
1749976372.148677,2670
1749976372.1487691,2695
1749976372.14884,2516
1749976372.1489122,2233
1749976372.1489854,1935
1749976372.1490583,1691
1749976372.1491299,1519
1749976372.149202,1540
1749976372.1492739,1827
1749976372.1493464,2262
1749976372.1494257,2583
1749976372.1494997,2675
1749976372.1495752,2546
1749976372.1496525,2283
1749976372.1497245,1985
1749976372.1497962,1736
1749976372.1498723,1554
1749976372.149945,1538
1749976372.1500173,1785
1749976372.150089,2213
1749976372.150165,2565
1749976372.1502407,2694
1749976372.1503143,2595
1749976372.150389,2345
1749976372.1504636,2045
1749976372.1505353,1786
1749976372.1507745,1589
1749976372.150848,1528
1749976372.1509216,1720
1749976372.1509972,2122
1749976372.1510723,2498
1749976372.1511476,2667
1749976372.1512194,2608
1749976372.1512907,2379
1749976372.151506,2081
1749976372.15158,1810
1749976372.1516528,1601
1749976372.151724,1507
1749976372.151798,1654
1749976372.15188,2031
1749976372.1519873,2428
1749976372.1711445,2636
1749976372.171255,2615
1749976372.1713603,2408
1749976372.1714647,2115
1749976372.1715753,1831
1749976372.1716793,1608
1749976372.1717837,1482
1749976372.1718879,1581
1749976372.1719923,1924
1749976372.1721072,2336
1749976372.1722116,2583
1749976372.1723163,2605
1749976372.1783373,2424
1749976372.1784587,2137
1749976372.1785657,1839
1749976372.178672,1602
1749976372.1787896,1453
1749976372.1788957,1510
1749976372.180169,1818
1749976372.1803024,2235
1749976372.1805863,2518
1749976372.181587,2582
1749976372.2725759,2438
1749976372.2727563,2169
1749976372.2729037,1867
1749976372.2756014,1617
1749976372.27576,1445
1749976372.2759063,1458
1749976372.2863572,1727
1749976372.2864344,2142
1749976372.2864985,2455
1749976372.2884333,2551
1749976372.2885234,2436
1749976372.31367,2184
1749976372.3140187,1882
1749976372.3140948,1622
1749976372.314169,1430
1749976372.3142421,1399
1749976372.3143148,1624
1749976372.3143892,2033
1749976372.3144653,2380
1749976372.3145409,2519
1749976372.3146057,2442
1749976372.3146834,2211
1749976372.3147626,1911
1749976372.3148391,1638
1749976372.3149142,1428
1749976372.3149896,1354
1749976372.3150668,1533
1749976372.315141,1924
1749976372.3152158,2298
1749976372.3152914,2471
1749976372.3153625,2426
1749976372.3156264,2213
1749976372.3157063,1923
1749976372.3157833,1647
1749976372.3158586,1430
1749976372.3159342,1325
1749976372.31601,1459
1749976372.3160856,1827
1749976372.3161604,2227
1749976372.3162353,2441
1749976372.3163097,2430
1749976372.316385,2231
1749976372.3164604,1943
1749976372.3165355,1656
1749976372.3166106,1432
1749976372.316685,1299
1749976372.3167603,1385
1749976372.3168352,1718
1749976372.3169098,2135
1749976372.3169913,2396
1749976372.3170664,2434
1749976372.317141,2271
1749976372.3172162,1997
1749976372.3172908,1706
1749976372.3173654,1471
1749976372.3174403,1313
1749976372.3175154,1350
1749976372.31759,1642
1749976372.3176649,2063
1749976372.3177395,2361
1749976372.3178148,2435
1749976372.3178897,2297
1749976372.3179643,2033
1749976372.3180392,1737
1749976372.3181143,1493
1749976372.3181894,1316
1749976372.318264,1305
1749976372.3330731,1551
1749976372.3530211,1968
1749976372.366102,2303
1749976372.3720338,2422
1749976372.3721344,2321
1749976372.3722074,2074
1749976372.3722785,1776
1749976372.372349,1517
1749976372.372419,1321
1749976372.3724892,1269
1749976372.3725598,1474
1749976372.3726304,1879
1749976372.3727005,2241
1749976372.3727708,2391
1749976372.3728404,2321
1749976372.37291,2095
1749976372.372981,1808
1749976372.3730514,1543
1749976372.3731215,1330
1749976372.3731918,1236
1749976372.373262,1397
1749976372.373332,1793
1749976372.3734016,2196
1749976372.3734722,2391
1749976372.3735418,2351
1749976372.373612,2138
1749976372.373682,1856
1749976372.3737526,1588
1749976372.3738222,1369
1749976372.3738923,1238
1749976372.3739624,1339
1749976372.374033,1694
1749976372.3741038,2113
1749976372.3741758,2355
1749976372.3742454,2363
1749976372.3743155,2178
1749976372.3743858,1901
1749976372.3744564,1618
1749976372.3745263,1388
1749976372.3745954,1235
1749976372.3746665,1294
1749976372.3747365,1614
1749976372.374807,2041
1749976372.3748767,2316
1749976372.3749464,2359
1749976372.375016,2196
1749976372.3750868,1926
1749976372.3935091,1638
1749976372.41095,1402
1749976372.4111176,1233
1749976372.4112065,1245
1749976372.4113433,1517
1749976372.4114459,1939
1749976372.4356122,2254
1749976372.4605992,2348
1749976372.5347605,2229
1749976372.534836,1977
1749976372.534903,1684
1749976372.53497,1438
1749976372.5350387,1256
1749976372.5351036,1232
1749976372.5351694,1463
1749976372.5352373,1872
1749976372.5352976,2212
1749976372.535482,2340
1749976372.5499566,2254
1749976372.5503032,2019
1749976372.5507274,1725
1749976372.551069,1465
1749976372.5514755,1268
1749976372.5518074,1206
1749976372.560734,1394
1749976372.5709763,1789
1749976372.5714514,2160
1749976372.5717876,2328
1749976372.5721765,2278
1749976372.5725074,2062
1749976372.5728686,1773
1749976372.573822,1503
1749976372.633805,1294
1749976372.6878464,1196
1749976372.6891935,1333
1749976372.6915164,1698
1749976372.716506,2088
1749976372.7166247,2295
1749976372.7173235,2284
1749976372.720112,2093
1749976372.7642696,1814
1749976372.7644339,1538
1749976372.7899315,1319
1749976372.8016398,1189
1749976372.8022132,1277
1749976372.8033671,1610
1749976372.803891,2020
1749976372.803975,2272
1749976372.8040562,2302
1749976372.835042,2135
1749976372.9118588,1862
1749976372.9276946,1577
1749976372.9296622,1351
1749976372.931757,1203
1749976372.9321887,1251
1749976372.9341455,1548
1749976372.9346762,1965
1749976372.9347482,2255
1749976372.9348226,2325
1749976372.9348998,2188
1749976372.935658,1927
1749976372.935769,1637
1749976372.9391818,1399
1749976372.940654,1233
1749976372.9410143,1239
1749976372.941368,1496
1749976372.941727,1909
1749976372.9421163,2231
1749976372.9424973,2340
1749976372.9428341,2239
1749976372.9431746,1998
1749976372.9435117,1704
1749976372.9438543,1446
1749976372.9441862,1254
1749976372.9445207,1216
1749976372.9448528,1436
1749976372.9451923,1848
1749976372.9459643,2206
1749976372.9462945,2351
1749976372.96496,2277
1749976372.9652016,2046
1749976372.9741285,1752
1749976372.974218,1487
1749976372.9743025,1284
1749976372.9743867,1207
1749976372.9744694,1373
1749976372.9746392,1757
1749976372.9747238,2140
1749976372.9748065,2328
1749976372.9748888,2298
1749976372.974972,2092
1749976372.9750583,1803
1749976372.9751422,1527
1749976372.975226,1313
1749976372.9753025,1204
1749976372.9753823,1325
1749976372.9754748,1681
1749976372.9755588,2085
1749976372.975641,2316
1749976372.9757235,2325
1749976372.9758067,2140
1749976372.9758914,1854
1749976372.9759796,1561
1749976372.9760628,1331
1749976372.9761462,1192
1749976372.976233,1266
1749976372.97632,1587
1749976372.976403,2003
1749976372.976486,2275
1749976372.9765685,2323
1749976372.9766517,2158
1749976372.9767332,1865
1749976372.976816,1541
1749976372.9769015,1278
1749976372.9769845,1097
1749976372.977068,1106
1749976372.9771514,1362
1749976372.977238,1754
1749976372.977321,2040
1749976372.9774039,2121
1749976372.9774864,2001
1749976372.9775698,1751
1749976372.9776578,1457
1749976372.9781473,1212
1749976372.9849658,1040
1749976372.9850368,1039
1749976372.9851027,1296
1749976372.9851682,1725
1749976372.9852333,2078
1749976372.9853003,2214
1749976372.9853652,2130
1749976372.9854515,1897
1749976372.9855237,1608
1749976372.9855888,1355
1749976372.9856598,1165
1749976372.9857264,1115
1749976372.985794,1318
1749976372.985859,1727
1749976372.985924,2107
1749976372.9859896,2279
1749976372.9860556,2227
1749976372.986121,2007
1749976372.9861891,1716
1749976372.9862535,1449
1749976372.986318,1246
1749976372.9863842,1162
1749976372.986449,1321
1749976372.9865096,1709
1749976372.986684,2115
1749976372.9867554,2329
1749976372.98682,2315
1749976372.9868846,2113
1749976372.9869492,1823
1749976372.987014,1539
1749976372.987079,1318
1749976372.9871454,1198
1749976372.9872117,1306
1749976372.9872732,1659
1749976372.9873314,2079
1749976372.987519,2330
1749976372.987584,2355
1749976372.987648,2181
1749976372.9877129,1902
1749976372.9877775,1609
1749976372.9878423,1374
1749976372.9879076,1222
1749976372.987972,1278
1749976372.9880362,1593
1749976372.9881022,2022
1749976372.9881668,2314
1749976372.9882343,2378
1749976372.9883342,2229
1749976372.9883993,1960
1749976372.9884639,1663
1749976372.9885285,1418
1749976372.9885926,1246
1749976372.988661,1256
1749976372.9887323,1529
1749976372.9887996,1960
1749976372.9888637,2293
1749976372.9889283,2402
1749976372.988995,2288
1749976372.98906,2031
1749976372.9891245,1725
1749976372.989189,1466
1749976372.989253,1278
1749976372.9893174,1252
1749976372.9893816,1485
1749976372.9894483,1904
1749976372.9895127,2265
1749976372.9895775,2410
1749976372.9896412,2333
1749976372.9897068,2096
1749976372.9897707,1796
1749976372.9898355,1525
1749976372.9899006,1320
1749976372.9899657,1250
1749976372.9900305,1433
1749976372.9900956,1833
1749976372.9901602,2224
1749976372.9902246,2412
1749976372.9902906,2374
1749976372.9903955,2155
1749976372.990462,1854
1749976372.9906032,1570
1749976372.9906693,1352
1749976372.990734,1246
1749976372.9908004,1379
1749976372.9909093,1749
1749976372.9910402,2160
1749976372.9911058,2390
1749976372.991171,2393
1749976372.9912357,2201
1749976372.9912958,1913
1749976373.013136,1625
1749976373.013251,1399
1749976373.0133543,1265
1749976373.013457,1350
1749976373.01356,1685
1749976373.013663,2106
1749976373.0137658,2372
1749976373.013869,2411
1749976373.0202339,2243
1749976373.0203128,1964
1749976373.020384,1668
1749976373.0204544,1432
1749976373.020858,1275
1749976373.0209303,1314
1749976373.0210216,1608
1749976373.021092,2031
1749976373.0211656,2333
1749976373.0212395,2412
1749976373.0213087,2276
1749976373.0213776,2009
1749976373.0214543,1705
1749976373.021524,1453
1749976373.021594,1276
1749976373.0216682,1275
1749976373.021738,1533
1749976373.0218084,1958
1749976373.0218868,2300
1749976373.0219553,2421
1749976373.0220292,2321
1749976373.02211,2071
1749976373.0221858,1767
1749976373.0222592,1506
1749976373.0223331,1313
1749976373.0224085,1269
1749976373.0224762,1480
1749976373.0225377,1889
1749976373.0361476,2260
1749976373.0362558,2422
1749976373.0363348,2360
1749976373.0364065,2126
1749976373.0364778,1818
1749976373.0365577,1535
1749976373.045983,1324
1749976373.0460641,1245
1749976373.0461376,1414
1749976373.046209,1802
1749976373.046281,2195
1749976373.046352,2397
1749976373.0464342,2377
1749976373.0465055,2172
1749976373.0955224,1873
1749976373.0968306,1578
1749976373.1135244,1350
1749976373.1136718,1234
1749976373.113777,1348
1749976373.11388,1693
1749976373.1139827,2091
1749976373.1140852,2327
1749976373.1141884,2355
1749976373.1142912,2188
1749976373.114394,1906
1749976373.1144972,1601
1749976373.1165915,1363
1749976373.1166997,1232
1749976373.1168175,1325
1749976373.1169205,1659
1749976373.1358776,2079
1749976373.1359606,2349
1749976373.1360345,2403
1749976373.1363666,2252
1749976373.1816773,1976
1749976373.181822,1665
1749976373.1819546,1415
1749976373.19486,1254
1749976373.2921736,1285
1749976373.3110495,1562
1749976373.342213,1969
1749976373.3454418,2274
1749976373.345787,2375
1749976373.346247,2270
1749976373.3466256,2015
1749976373.3758602,1698
1749976373.395641,1426
1749976373.4318278,1242
1749976373.4681773,1243
1749976373.4921992,1504
1749976373.495421,1930
1749976373.4957654,2278
1749976373.49609,2412
1749976373.4964106,2329
1749976373.4967318,2085
1749976373.4970508,1771
1749976373.4973695,1494
1749976373.49769,1296
1749976373.4980085,1245
1749976373.4983282,1435
1749976373.4986434,1818
1749976373.540977,2181
1749976373.5499694,2363
1749976373.5500484,2338
1749976373.5501223,2129
1749976373.5501955,1819
1749976373.5502691,1516
1749976373.5503418,1292
1749976373.5504146,1212
1749976373.5504856,1384
1749976373.5505514,1776
1749976373.5506136,2178
1749976373.5506861,2389
1749976373.5507572,2378
1749976373.5508168,2179
1749976373.550876,1883
1749976373.5510461,1586
1749976373.5511189,1351
1749976373.5511925,1222
1749976373.5512652,1324
1749976373.5513332,1675
1749976373.5513923,2099
1749976373.5514648,2357
1749976373.5515378,2386
1749976373.5516105,2211
1749976373.5516834,1928
1749976373.5517633,1628
1749976373.5518353,1385
1749976373.5519078,1227
1749976373.5519803,1277
1749976373.5520527,1586
1749976373.5521355,2016
1749976373.5522084,2316
1749976373.5522814,2392
1749976373.5523536,2253
1749976373.5524263,1980
1749976373.5524986,1668
1749976373.552571,1412
1749976373.5526438,1241
1749976373.5527167,1254
1749976373.5527894,1513
1749976373.5528624,1918
1749976373.5529351,2234
1749976373.5529997,2352
1749976373.5530722,2263
1749976373.553145,2018
1749976373.553218,1699
1749976373.55329,1422
1749976373.5533626,1238
1749976373.5534353,1233
1749976373.5535085,1478
1749976373.553581,1890
1749976373.5536537,2238
1749976373.5537345,2385
1749976373.5538075,2325
1749976373.5538788,2097
1749976373.5539515,1785
1749976373.5540242,1498
1749976373.5540967,1291
1749976373.5541692,1232
1749976373.554242,1414
1749976373.6192656,1793
1749976373.6408048,2161
1749976373.7023022,2349
1749976373.7032166,2332
1749976373.7036104,2135
1749976373.7044127,1835
1749976373.704789,1536
1749976373.7048976,1309
1749976373.7052233,1213
1749976373.7091699,1364
1749976373.7096386,1746
1749976373.7113671,2157
1749976373.7117615,2383
1749976373.7118692,2384
1749976373.7123764,2193
1749976373.712542,1904
1749976373.7128983,1609
1749976373.7130282,1375
1749976373.7136538,1236
1749976373.7137668,1319
1749976373.7138724,1656
1749976373.7139769,2085
1749976373.714081,2361
1749976373.714441,2409
1749976373.7145488,2245
1749976373.7150633,1962
1749976373.7151701,1658
1749976373.7152743,1413
1749976373.7153778,1251
1749976373.7157943,1288
1749976373.7159007,1584
1749976373.716005,2015
1749976373.7166016,2331
1749976373.7167115,2424
1749976373.716816,2298
1749976373.7169209,2030
1749976373.7197392,1717
1749976373.7198555,1454
1749976373.7203243,1272
1749976373.7205043,1269
1749976373.7206874,1527
1749976373.7208748,1951
1749976373.7210565,2292
1749976373.7250502,2415
1749976373.725165,2318
1749976373.7252698,2068
1749976373.7253745,1759
1749976373.7254956,1488
1749976373.725607,1289
1749976373.7257113,1241
1749976373.725816,1450
1749976373.7259207,1859
1749976373.7260265,2230
1749976373.7261393,2393
1749976373.7262447,2331
1749976373.7288108,2100
1749976373.728917,1795
1749976373.7290208,1515
1749976373.7291253,1304
1749976373.72923,1220
1749976373.7293334,1383
1749976373.7294369,1771
1749976373.7295578,2172
1749976373.7297168,2380
1749976373.7298212,2360
1749976373.7299252,2151
1749976373.7300289,1851
1749976373.7301319,1560
1749976373.730236,1337
1749976373.7303393,1220
1749976373.7304428,1332
1749976373.7305458,1684
1749976373.7306516,2096
1749976373.7307887,2342
1749976373.73959,2367
1749976373.739669,2192
1749976373.7430747,1907
1749976373.8022242,1606
1749976373.8023055,1367
1749976373.8023798,1223
1749976373.802453,1296
1749976373.8025255,1623
1749976373.8025877,2051
1749976373.802654,2334
1749976373.8031955,2394
1749976373.8053038,2245
1749976373.8053856,1975
1749976373.8060305,1672
1749976373.8061018,1421
1749976373.8061695,1250
1749976373.8062367,1273
1749976373.8063033,1556
1749976373.80637,1983
1749976373.806436,2301
1749976373.8065035,2398
1749976373.8065703,2281
1749976373.8066366,2025
1749976373.8067021,1718
1749976373.8067682,1454
1749976373.8068345,1263
1749976373.8069,1245
1749976373.8069668,1491
1749976373.8070352,1915
1749976373.8071017,2268
1749976373.807167,2405
1749976373.8072329,2325
1749976373.807299,2090
1749976373.807368,1787
1749976373.807434,1509
1749976373.8075004,1298
1749976373.807566,1232
1749976373.8076317,1428
1749976373.8076978,1836
1749976373.8077629,2221
1749976373.8078287,2399
1749976373.8079407,2353
1749976373.8080077,2135
1749976373.8080738,1837
1749976373.8081396,1553
1749976373.8082054,1332
1749976373.8082714,1231
1749976373.8083615,1377
1749976373.8084276,1758
1749976373.808493,2165
1749976373.808559,2381
1749976373.8086255,2369
1749976373.8086913,2168
1749976373.8087935,1876
1749976373.80886,1584
1749976373.8089256,1351
1749976373.808991,1217
1749976373.8090565,1313
1749976373.8091218,1662
1749976373.8188121,2088
1749976373.8881497,2351
1749976373.9101534,2384
1749976373.9105191,2217
1749976373.9108558,1941
1749976373.9111812,1646
1749976373.9115405,1405
1749976373.9118843,1248
1749976373.9122422,1301
1749976373.9127343,1619
1749976373.9128351,2056
1749976373.9129562,2355
1749976373.9130375,2421
1749976373.9131176,2275
1749976373.9131987,2007
1749976373.9132795,1709
1749976373.9133623,1459
1749976373.913444,1277
1749976373.9135246,1274
1749976373.9135938,1533
1749976373.9136608,1958
1749976373.9137278,2293
1749976373.9137983,2407
1749976373.9138792,2303
1749976373.913958,2055
1749976373.914037,1756
1749976373.9227931,1497
1749976373.9248226,1306
1749976373.925165,1272
1749976373.9255202,1496
1749976373.9258509,1912
1749976373.9261746,2276
1749976373.9264967,2426
1749976373.9268186,2353
1749976373.9271395,2117
1749976373.9274604,1812
1749976373.9277816,1535
1749976373.9281015,1325
1749976373.9284291,1249
1749976373.9402106,1425
1749976373.9406264,1820
1749976373.9409564,2212
1749976373.941289,2408
1749976373.941619,2381
1749976373.9419441,2172
1749976373.942327,1874
1749976373.9426708,1584
1749976373.9456878,1361
1749976373.9458013,1254
1749976373.945907,1385
1749976373.9460123,1750
1749976373.9461434,2156
1749976373.9492497,2385
1749976373.949335,2394
1749976373.9494176,2211
1749976373.9494948,1926
1749976373.9495764,1630
1749976373.949655,1391
1749976373.9497328,1250
1749976373.9498086,1331
1749976373.9498875,1665
1749976373.9499657,2088
1749976373.958696,2356
1749976374.0095959,2398
1749976374.0240417,2236
1749976374.024229,1961
1749976374.024342,1663
1749976374.0244524,1421
1749976374.024564,1259
1749976374.0246732,1293
1749976374.0247831,1586
1749976374.0248935,2015
1749976374.0250044,2325
1749976374.025114,2410
1749976374.0325038,2279
1749976374.0439606,2015
1749976374.0441709,1712
1749976374.0442443,1457
1749976374.0443168,1274
1749976374.0443883,1262
1749976374.0444603,1513
1749976374.0445325,1942
1749976374.0446038,2294
1749976374.0446756,2424
1749976374.0447476,2325
1749976374.0448196,2070
1749976374.0448914,1760
1749976374.044964,1493
1749976374.0450366,1297
1749976374.0451086,1245
1749976374.045181,1447
1749976374.0452528,1853
1749976374.0453308,2230
1749976374.0454128,2402
1749976374.045485,2347
1749976374.045557,2116
1749976374.0456283,1811
1749976374.0456991,1532
1749976374.0457702,1320
1749976374.045842,1231
1749976374.045913,1386
1749976374.0459855,1771
1749976374.046057,2175
1749976374.0461283,2389
1749976374.0462036,2375
1749976374.0462751,2170
1749976374.046346,1876
1749976374.046417,1587
1749976374.0464883,1361
1749976374.0465596,1239
1749976374.0466306,1350
1749976374.0467024,1710
1749976374.0467734,2135
1749976374.0468454,2385
1749976374.0469167,2402
1749976374.0469878,2221
1749976374.0470586,1941
1749976374.0471299,1653
1749976374.0472028,1417
1749976374.0472841,1259
1749976374.0473554,1313
1749976374.0474267,1634
1749976374.0474977,2073
1749976374.0475688,2370
1749976374.0476398,2432
1749976374.0477126,2276
1749976374.04779,2000
1749976374.047863,1699
1749976374.0479343,1452
1749976374.0480056,1278
1749976374.048077,1288
1749976374.0481484,1560
1749976374.0482206,1985
1749976374.0482934,2309
1749976374.0483644,2412
1749976374.0484362,2299
1749976374.0485082,2048
1749976374.0485792,1750
1749976374.0486507,1493
1749976374.048722,1301
1749976374.0632765,1271
1749976374.0635433,1504
1749976374.0636168,1926
1749976374.0689452,2288
1749976374.069028,2431
1749976374.069101,2345
1749976374.0691738,2097
1749976374.0692468,1789
1749976374.0693183,1518
1749976374.0693908,1316
1749976374.0694625,1252
1749976374.0695345,1439
1749976374.0696073,1838
1749976374.0696785,2222
1749976374.0697513,2404
1749976374.069823,2360
1749976374.0698946,2144
1749976374.0699666,1850
1749976374.070038,1573
1749976374.0701094,1354
1749976374.0701811,1245
1749976374.0702536,1376
1749976374.0703251,1747
1749976374.0703964,2156
1749976374.070468,2379
1749976374.0705388,2370
1749976374.0706103,2166
1749976374.070682,1869
1749976374.0707538,1577
1749976374.070825,1350
1749976374.0709,1219
1749976374.070972,1310
1749976374.0710435,1647
1749976374.0711153,2067
1749976374.0711877,2329
1749976374.071259,2367
1749976374.0713305,2201
1749976374.0714025,1922
1749976374.0714736,1623
1749976374.0715454,1382
1749976374.0716166,1225
1749976374.0716908,1269
1749976374.0717618,1572
1749976374.0718334,2000
1749976374.0719054,2302
1749976374.0719774,2381
1749976374.0720487,2246
1749976374.0721915,1981
1749976374.0722644,1680
1749976374.0723362,1429
1749976374.0724087,1252
1749976374.07248,1252
1749976374.0725517,1511
1749976374.0726237,1934
1749976374.072698,2269
1749976374.0727754,2384
1749976374.0728662,2280
1749976374.072934,2028
1749976374.073004,1726
1749976374.073076,1467
1749976374.0731483,1276
1749976374.0732214,1235
1749976374.101803,1445
1749976374.1313815,1849
1749976374.13151,2212
1749976374.1988866,2370
1749976374.2333877,2309
1749976374.2536323,2083
1749976374.2537346,1784
1749976374.2538166,1508
1749976374.253898,1298
1749976374.2539792,1219
1749976374.2540605,1389
1749976374.2541413,1781
1749976374.2542224,2173
1749976374.254303,2369
1749976374.2543848,2342
1749976374.2544653,2133
1749976374.25454,1838
1749976374.2546122,1554
1749976374.2546926,1336
1749976374.2547746,1227
1749976374.2548554,1352
1749976374.254936,1714
1749976374.2550173,2122
1749976374.2550976,2355
1749976374.255178,2366
1749976374.255261,2183
1749976374.2553375,1897
1749976374.255423,1600
1749976374.2555625,1361
1749976374.255644,1214
1749976374.255726,1285
1749976374.2558067,1611
1749976374.2558875,2036
1749976374.255968,2315
1749976374.2560484,2367
1749976374.256129,2209
1749976374.2562091,1931
1749976374.2562897,1627
1749976374.2563705,1383
1749976374.2564511,1222
1749976374.2565317,1254
1749976374.2566125,1543
1749976374.256693,1970
1749976374.2567737,2285
1749976374.256854,2380
1749976374.2569346,2257
1749976374.2570152,1994
1749976374.2570956,1685
1749976374.2571762,1422
1749976374.2572565,1234
1749976374.2573373,1216
1749976374.2574182,1460
1749976374.2574987,1881
1749976374.257579,2230
1749976374.2576613,2363
1749976374.2577415,2274
1749976374.2578218,2030
1749976374.2579024,1725
1749976374.2579827,1458
1749976374.2580633,1259
1749976374.2581434,1203
1749976374.2582238,1399
1749976374.2583048,1800
1749976374.2583847,2175
1749976374.258465,2348
1749976374.2585373,2299
1749976374.258613,2079
1749976374.2586935,1781
1749976374.2800527,1500
1749976374.2801316,1282
1749976374.2802022,1185
1749976374.2802718,1332
1749976374.2803414,1710
1749976374.2804108,2109
1749976374.2804816,2318
1749976374.2805521,2301
1749976374.2806218,2099
1749976374.2806911,1811
1749976374.2807605,1529
1749976374.2808297,1309
1749976374.2808998,1187
1749976374.2809691,1290
1749976374.2810383,1639
1749976374.2811096,2051
1749976374.281179,2282
1749976374.2812526,2267
1749976374.2813218,2040
1749976374.281391,1713
1749976374.28146,1386
1749976374.2815297,1128
1749976374.2815979,953
1749976374.2816668,982
1749976374.2817357,1280
1749976374.2818048,1718
1749976374.2818737,2039
1749976374.2819426,2129
1749976374.2820117,1986
1749976374.2820992,1698
1749976374.282169,1374
1749976374.2822387,1109
1749976374.2823086,922
1749976374.2823782,914
1749976374.2824473,1156
1749976374.2825143,1548
1749976374.2825766,1846
1749976374.2826478,1935
1749976374.2827168,1822
1749976374.2827861,1581
1749976374.2828555,1295
1749976374.2829247,1049
1749976374.2829936,868
1749976374.2830627,848
1749976374.283132,1096
1749976374.2832112,1543
1749976374.2832804,1937
1749976374.2833416,2113
1749976374.283411,2062
1749976374.2834802,1845
1749976374.283549,1560
1749976374.2836182,1303
1749976374.283689,1116
1749976374.2837589,1068
1749976374.2838287,1269
1749976374.2838986,1672
1749976374.283969,2048
1749976374.2840385,2213
1749976374.2841084,2160
1749976374.2841785,1945
1749976374.284248,1656
1749976374.2843933,1380
1749976374.3158238,1161
1749976374.316868,1058
1749976374.331228,1202
1749976374.3313038,1590
1749976374.3313706,2021
1749976374.331439,2271
1749976374.3315103,2294
1749976374.3315814,2121
1749976374.331653,1842
1749976374.3317232,1552
1749976374.3317955,1319
1749976374.3318667,1183
1749976374.3319385,1270
1749976374.3320096,1607
1749976374.3321335,2028
1749976374.332207,2293
1749976374.3322778,2337
1749976374.3323567,2184
1749976374.3324275,1922
1749976374.332498,1640
1749976374.332569,1414
1749976374.3326397,1270
1749976374.33271,1325
1749976374.332781,1635
1749976374.3328516,2068
1749976374.332923,2364
1749976374.3329937,2421
1749976374.333064,2252
1749976374.3331351,1947
1749976374.3332062,1604
1749976374.3332772,1313
1749976374.333348,1097
1749976374.3334188,1059
1749976374.3334892,1290
1749976374.3335598,1705
1749976374.3336306,2056
1749976374.3337007,2202
1749976374.3337712,2135
1749976374.3338413,1918
1749976374.333912,1641
1749976374.3339822,1399
1749976374.334055,1221
1749976374.3341255,1193
1749976374.3341966,1423
1749976374.334267,1854
1749976374.3343477,2241
1749976374.334418,2404
1749976374.334489,2329
1749976374.3345602,2077
1749976374.3346314,1753
1749976374.3347023,1456
1749976374.3347728,1227
1749976374.3348434,1125
1749976374.334914,1273
1749976374.3349848,1648
1749976374.335055,2028
1749976374.3351254,2209
1749976374.3351965,2169
1749976374.335268,1959
1749976374.335339,1678
1749976374.3354247,1410
1749976374.3354971,1198
1749976374.3355684,1085
1749976374.3356392,1210
1749976374.3357105,1591
1749976374.3357813,2039
1749976374.3522255,2316
1749976374.435948,2359
1749976374.471715,2194
1749976374.4718428,1919
1749976374.476658,1632
1749976374.4767501,1408
1749976374.476853,1278
1749976374.4769344,1366
1749976374.4770153,1705
1749976374.4770954,2141
1749976374.4771764,2428
1749976374.4774923,2492
1749976374.477579,2351
1749976374.4776602,2093
1749976374.477832,1807
1749976374.477917,1574
1749976374.4779897,1419
1749976374.4780626,1454
1749976374.4781346,1744
1749976374.478396,2170
1749976374.4784684,2476
1749976374.478533,2548
1749976374.4785945,2392
1749976374.4786673,2092
1749976374.4787517,1752
1749976374.4788253,1467
1749976374.4788976,1260
1749976374.4789696,1223
1749976374.4790416,1449
1749976374.4791136,1866
1749976374.4791853,2235
1749976374.4792573,2403
1749976374.4793298,2352
1749976374.4794018,2135
1749976374.4794734,1846
1749976374.4795456,1587
1749976374.4796176,1399
1749976374.4796894,1356
1749976374.4797606,1563
1749976374.4798408,1967
1749976374.4799132,2338
1749976374.4799852,2493
1749976374.480057,2416
1749976374.4801288,2156
1749976374.4802008,1813
1749976374.4802737,1489
1749976374.4803452,1236
1749976374.480418,1115
1749976374.4804897,1250
1749976374.4805603,1626
1749976374.480631,2038
1749976374.480701,2273
1749976374.4807713,2291
1749976374.4808416,2124
1749976374.4809124,1865
1749976374.480983,1603
1749976374.481053,1398
1749976374.481124,1291
1749976374.4811947,1410
1749976374.481265,1774
1749976374.4813354,2209
1749976374.481406,2476
1749976374.4814758,2515
1749976374.4815464,2350
1749976374.4816165,2079
1749976374.4816866,1794
1749976374.4817572,1569
1749976374.4818373,1430
1749976374.4819074,1496
1749976374.4819784,1820
1749976374.4820492,2263
1749976374.4834294,2572
1749976374.483507,2650
1749976374.4835799,2507
1749976374.495425,2233
1749976374.4955244,1926
1749976374.4956055,1677
1749976374.495679,1510
1749976374.4957523,1530
1749976374.4958265,1810
1749976374.4959016,2244
1749976374.495975,2580
1749976374.4960475,2695
1749976374.4961195,2588
1749976374.4961917,2333
1749976374.496264,2025
1749976374.4963362,1759
1749976374.496408,1567
1749976374.4964797,1538
1749976374.4965522,1770
1749976374.4966238,2192
1749976374.4966962,2561
1749976374.4967678,2717
1749976374.4968405,2642
1749976374.496911,2389
1749976374.496983,2052
1749976374.4970548,1738
1749976374.4971266,1500
1749976374.497198,1411
1749976374.49727,1581
1749976374.5032015,1969
1749976374.5043638,2352
1749976374.510964,2541
1749976374.5110781,2512
1749976374.5111818,2306
1749976374.5112858,2014
1749976374.5114098,1727
1749976374.5115132,1502
1749976374.5116165,1392
1749976374.51172,1524
1749976374.5118227,1889
1749976374.5194445,2281
1749976374.5195544,2474
1749976374.5196574,2432
1749976374.5197608,2199
1749976374.5198638,1883
1749976374.5199673,1572
1749976374.520093,1323
1749976374.5201983,1170
1749976374.520301,1247
1749976374.5204165,1594
1749976374.5206265,2047
1749976374.5207293,2352
1749976374.5208333,2423
1749976374.5209358,2273
1749976374.5210385,1999
1749976374.5211544,1698
1749976374.521263,1456
1749976374.521368,1300
1749976374.5214715,1350
1749976374.5215743,1657
1749976374.5216768,2087
1749976374.521802,2378
1749976374.52191,2429
1749976374.5219877,2257
1749976374.5220728,1956
1749976374.5913985,1625
1749976374.657966,1353
1749976374.6588957,1162
1749976374.6617522,1152
1749976374.6756768,1409
1749976374.6775382,1848
1749976374.72699,2217
1749976374.7283354,2374
1749976374.7284446,2308
1749976374.7322981,2082
1749976374.7325394,1790
1749976374.7326465,1530
1749976374.7328086,1338
1749976374.772052,1297
1749976374.8035092,1515
1749976374.8035898,1932
1749976374.803659,2301
1749976374.8037262,2446
1749976374.8037932,2353
1749976374.8038616,2090
1749976374.8039293,1763
1749976374.8039963,1470
1749976374.8040633,1246
1749976374.8041294,1149
1749976374.8041964,1308
1749976374.8042624,1709
1749976374.8043337,2134
1749976374.8044043,2372
1749976374.8044746,2376
1749976374.8045435,2187
1749976374.804613,1908
1749976374.8046827,1636
1749976374.8047528,1424
1749976374.8144937,1314
1749976374.8146133,1435
1749976374.8146887,1803
1749976374.8147624,2231
1749976374.8148348,2486
1749976374.8149068,2509
1749976374.8152494,2330
1749976374.8153367,2052
1749976374.815468,1769
1749976374.815541,1548
1749976374.815613,1415
1749976374.8156848,1494
1749976374.8157568,1823
1749976374.8158371,2247
1749976374.8163435,2512
1749976374.8164392,2539
1749976374.816512,2355
1749976374.816585,2060
1749976374.8166578,1744
1749976374.8172867,1481
1749976374.8173711,1294
1749976374.8174431,1305
1749976374.818246,1595
1749976374.81834,2045
1749976374.8184135,2390
1749976374.818486,2506
1749976374.8185575,2398
1749976374.8194716,2150
1749976374.8195465,1855
1749976374.8196197,1600
1749976374.819691,1411
1749976374.8197632,1393
1749976374.819835,1640
1749976374.8199062,2064
1749976374.825603,2407
1749976374.825716,2522
1749976374.825822,2415
1749976374.8259401,2162
1749976374.826046,1856
1749976374.8584106,1580
1749976374.8591483,1364
1749976374.8677943,1296
1749976374.8683982,1501
1749976374.8685644,1933
1749976374.8686864,2344
1749976374.868841,2539
1749976374.8689616,2499
1749976374.8690815,2282
1749976374.8692293,1989
1749976374.869349,1714
1749976374.8694682,1498
1749976374.8695872,1399
1749976374.869717,1547
1749976374.870126,1932
1749976374.870256,2344
1749976374.8733273,2567
1749976374.9734983,2561
1749976375.0235376,2364
1749976375.0236216,2073
1749976375.02369,1784
1749976375.0245833,1556
1749976375.0249767,1430
1749976375.0257294,1534
1749976375.0258048,1888
1749976375.0258718,2316
1749976375.0259383,2581
1749976375.026241,2620
1749976375.02632,2453
1749976375.026387,2172
1749976375.0264688,1869
1749976375.0268273,1620
1749976375.0268977,1461
1749976375.0269647,1515
1749976375.0270317,1833
1749976375.0270972,2269
1749976375.0271635,2568
1749976375.0272288,2638
1749976375.0272946,2492
1749976375.027473,2220
1749976375.0275393,1913
1749976375.0276048,1656
1749976375.0276706,1474
1749976375.027736,1480
1749976375.0278015,1752
1749976375.0278673,2185
1749976375.0279324,2521
1749976375.0279977,2630
1749976375.0280633,2516
1749976375.0282192,2255
1749976375.0414057,1946
1749976375.0422215,1680
1749976375.0422897,1485
1749976375.042356,1448
1749976375.042421,1672
1749976375.0424876,2092
1749976375.0425532,2461
1749976375.0426533,2616
1749976375.04272,2540
1749976375.0427847,2296
1749976375.0428498,1983
1749976375.0429165,1702
1749976375.0429811,1488
1749976375.0430832,1412
1749976375.0431485,1590
1749976375.043214,1991
1749976375.0432727,2389
1749976375.0433376,2585
1749976375.0434024,2548
1749976375.0542338,2325
1749976375.05431,2015
1749976375.054377,1720
1749976375.0544417,1494
1749976375.0545006,1386
1749976375.0545664,1524
1749976375.0546315,1903
1749976375.0546968,2322
1749976375.0547616,2554
1749976375.054827,2554
1749976375.0548918,2354
1749976375.0549576,2056
1749976375.055022,1755
1749976375.0550878,1517
1749976375.0551531,1377
1749976375.0552182,1464
1749976375.0552769,1805
1749976375.0553403,2235
1749976375.0554216,2509
1749976375.0554888,2554
1749976375.0555537,2389
1749976375.055621,2104
1749976375.055687,1793
1749976375.055752,1536
1749976375.055817,1367
1749976375.0558825,1409
1749976375.055952,1720
1749976375.0560172,2163
1749976375.0560822,2476
1749976375.0561473,2554
1749976375.0562122,2412
1749976375.0562773,2140
1749976375.0563421,1832
1749976375.0564075,1571
1749976375.0564728,1381
1749976375.0565383,1369
1749976375.0566034,1627
1749976375.0566685,2063
1749976375.0567334,2417
1749976375.0567982,2543
1749976375.0568638,2436
1749976375.0569289,2171
1749976375.0569937,1854
1749976375.0570588,1583
1749976375.057125,1385
1749976375.057194,1340
1749976375.0572593,1553
1749976375.0573237,1970
1749976375.0573885,2352
1749976375.057454,2524
1749976375.0575194,2463
1749976375.0575855,2226
1749976375.0576503,1915
1749976375.0577154,1632
1749976375.0577807,1418
1749976375.0578458,1330
1749976375.057915,1491
1749976375.0579796,1881
1749976375.0580451,2286
1749976375.0581102,2499
1749976375.0581753,2479
1749976375.0582402,2263
1749976375.0583065,1955
1749976375.0583735,1657
1749976375.0584369,1429
1749976375.0584967,1313
1749976375.0585613,1431
1749976375.0586264,1792
1749976375.058691,2212
1749976375.059972,2458
1749976375.0600502,2476
1749976375.0601175,2291
1749976375.0601835,2001
1749976375.060249,1701
1749976375.0603144,1460
1749976375.0603805,1310
1749976375.060447,1379
1749976375.0605128,1707
1749976375.060578,2140
1749976375.0606434,2425
1749976375.0607092,2477
1749976375.0607743,2314
1749976375.0608401,2030
1749976375.0609055,1719
1749976375.0609713,1465
1749976375.0610368,1292
1749976375.0611022,1317
1749976375.061167,1608
1749976375.0612326,2046
1749976375.061298,2372
1749976375.061363,2469
1749976375.061428,2342
1749976375.0614927,2074
1749976375.0615575,1760
1749976375.0616233,1492
1749976375.0616887,1300
1749976375.0617533,1281
1749976375.0618181,1528
1749976375.0618968,1956
1749976375.0619607,2313
1749976375.0620253,2449
1749976375.0621104,2360
1749976375.062176,2112
1749976375.062241,1802
1749976375.0623055,1524
1749976375.0623703,1314
1749976375.0624354,1251
1749976375.0625,1450
1749976375.0625648,1863
1749976375.06263,2251
1749976375.062694,2430
1749976375.062759,2379
1749976375.062824,2152
1749976375.0628881,1848
1749976375.062953,1561
1749976375.063018,1337
1749976375.063083,1239
1749976375.0631483,1398
1749976375.0632133,1800
1749976375.0632782,2222
1749976375.0633426,2439
1749976375.063408,2416
1749976375.0634723,2205
1749976375.0635378,1914
1749976375.0636036,1627
1749976375.0723848,1392
1749976375.0724561,1249
1749976375.0725224,1342
1749976375.072588,1701
1749976375.072654,2142
1749976375.0727196,2407
1749976375.0727851,2428
1749976375.07285,2242
1749976375.072916,1956
1749976375.0729809,1663
1749976375.0730462,1424
1749976375.0731115,1262
1749976375.0731773,1306
1749976375.0732424,1615
1749976375.073308,2049
1749976375.0733728,2349
1749976375.0734382,2419
1749976375.0735033,2268
1749976375.0735683,1988
1749976375.073633,1678
1749976375.0737073,1429
1749976375.1037965,1259
1749976375.1040335,1266
1749976375.104282,1520
1749976375.1045213,1924
1749976375.10477,2241
1749976375.1049948,2356
1749976375.1051257,2258
1749976375.1122954,2006
1749976375.1123848,1690
1749976375.112465,1420
1749976375.1125433,1238
1749976375.1126218,1227
1749976375.1127014,1469
1749976375.1127806,1886
1749976375.1128585,2239
1749976375.1129375,2384
1749976375.1130161,2313
1749976375.1130822,2077
1749976375.1131477,1768
1749976375.1132145,1485
1749976375.1132808,1275
1749976375.1133468,1210
1749976375.1134136,1400
1749976375.113483,1805
1749976375.1135538,2197
1749976375.1138628,2387
1749976375.115934,2353
1749976375.1169236,2140
1749976375.1178012,1842
1749976375.118036,1554
1749976375.1181698,1329
1749976375.1183062,1221
1749976375.1184466,1356
1749976375.1186364,1730
1749976375.122607,2145
1749976375.1311934,2376
1749976375.131419,2376
1749976375.131539,2179
1749976375.1391816,1883
1749976375.1393921,1582
1749976375.1394985,1342
1749976375.1396024,1199
1749976375.1397064,1282
1749976375.1398103,1623
1749976375.2358868,2056
1749976375.2488182,2335
1749976375.256088,2383
1749976375.2580588,2218
1749976375.2802515,1932
1749976375.2803264,1623
1749976375.2803931,1372
1749976375.280459,1208
1749976375.2805245,1249
1749976375.2805896,1551
1749976375.2806547,1983
1749976375.2807198,2291
1749976375.2807844,2373
1749976375.2808492,2239
1749976375.2809138,1971
1749976375.280979,1663
1749976375.2810433,1402
1749976375.2811077,1216
1749976375.2811708,1208
1749976375.281236,1466
1749976375.2813013,1894
1749976375.2813668,2237
1749976375.2814324,2359
1749976375.2814977,2262
1749976375.2815628,2016
1749976375.281628,1712
1749976375.2816932,1443
1749976375.2817585,1241
1749976375.281824,1195
1749976375.281889,1416
1749976375.281954,1839
1749976375.282027,2219
1749976375.3504033,2379
1749976375.4232378,2312
1749976375.4963195,2080
1749976375.5176728,1781
1749976375.5390105,1505
1749976375.5391862,1288
1749976375.5393908,1197
1749976375.5394974,1359
1749976375.5396152,1753
1749976375.539726,2158
1749976375.540874,2364
1749976375.5409863,2339
1749976375.541092,2128
1749976375.5411966,1831
1749976375.5413148,1542
1749976375.5414202,1315
1749976375.5415244,1193
1749976375.5416665,1310
1749976375.5417697,1674
1749976375.5418725,2097
1749976375.541975,2344
1749976375.5421093,2361
1749976375.5422132,2175
1749976375.5423148,1884
1749976375.5424175,1582
1749976375.5426254,1343
1749976375.54273,1197
1749976375.5428174,1272
1749976375.5428872,1605
1749976375.5429568,2037
1749976375.5430398,2318
1749976375.5431097,2368
1749976375.543346,2208
1749976375.5434124,1933
1749976375.543495,1632
1749976375.5439618,1384
1749976375.5956688,1211
1749976375.5957599,1231
1749976375.595842,1516
1749976375.5959227,1949
1749976375.5960033,2272
1749976375.596084,2370
1749976375.5961645,2247
1749976375.5962443,1982
1749976375.596377,1671
1749976375.596459,1407
1749976375.5965395,1217
1749976375.5966196,1201
1749976375.5966969,1450
1749976375.5968041,1879
1749976375.5968854,2235
1749976375.596965,2373
1749976375.5970447,2290
1749976375.597147,2051
1749976375.5992663,1746
1749976375.5993488,1473
1749976375.599424,1268
1749976375.5994961,1210
1749976375.5995705,1410
1749976375.599644,1817
1749976375.5997179,2198
1749976375.599793,2373
1749976375.5998704,2325
1749976375.5999436,2104
1749976375.600018,1802
1749976375.6000924,1516
1749976375.6001658,1296
1749976375.6002424,1199
1749976375.600316,1350
1749976375.60039,1731
1749976375.6005778,2135
1749976375.6006522,2355
1749976375.6007261,2351
1749976375.6008372,2157
1749976375.600911,1864
1749976375.600984,1568
1749976375.6010566,1335
1749976375.6011295,1209
1749976375.6012037,1314
1749976375.6052125,1665
1749976375.6053147,2084
1749976375.605428,2337
1749976375.6055276,2368
1749976375.6056266,2200
1749976375.6057253,1922
1749976375.6058228,1624
1749976375.6059203,1381
1749976375.606019,1226
1749976375.6061165,1281
1749976375.6062148,1595
1749976375.6063128,2025
1749976375.6064758,2320
1749976375.6089978,2391
1749976375.6091006,2249
1749976375.6092005,1981
1749976375.6092994,1676
1749976375.6093802,1422
1749976375.6094549,1245
1749976375.6095288,1254
1749976375.6096036,1524
1749976375.609677,1951
1749976375.6097515,2281
1749976375.609826,2389
1749976375.6098995,2279
1749976375.6099732,2023
1749976375.6100466,1715
1749976375.610121,1447
1749976375.6101975,1249
1749976375.610271,1212
1749976375.6103446,1436
1749976375.610426,1853
1749976375.6105022,2218
1749976375.610576,2369
1749976375.6106498,2296
1749976375.6107237,2057
1749976375.6107976,1751
1749976375.6108716,1476
1749976375.6109455,1270
1749976375.611019,1200
1749976375.6110926,1380
1749976375.6111662,1776
1749976375.6112401,2167
1749976375.6479712,2362
1749976375.6482315,2331
1749976375.6901057,2117
1749976375.7496307,1815
1749976375.814751,1524
1749976375.8660674,1302
1749976375.8661783,1197
1749976375.8663037,1332
1749976375.869559,1703
1749976375.8702836,2116
1749976375.870452,2350
1749976375.8724682,2359
1749976375.8728633,2170
1749976375.8730087,1879
1749976375.8735108,1582
1749976375.8736684,1348
1749976375.8738015,1211
1749976375.8742104,1296
1749976375.8748953,1630
1749976375.8750696,2053
1749976375.8752177,2322
1749976375.8753648,2365
1749976375.8756435,2199
1749976375.8757942,1916
1749976375.8871202,1609
1749976375.8994522,1363
1749976375.899633,1205
1749976375.8997388,1251
1749976375.899843,1556
1749976375.8999472,1991
1749976375.9000509,2303
1749976375.900154,2390
1749976375.9002578,2262
1749976375.9003608,1997
1749976375.9004636,1687
1749976375.9005663,1425
1749976375.90067,1240
1749976375.900775,1237
1749976375.9008794,1494
1749976375.900982,1919
1749976375.9010854,2262
1749976375.9011881,2391
1749976375.901318,2302
1749976375.9014354,2057
1749976375.9508033,1744
1749976375.9512148,1464
1749976375.9515457,1257
1749976375.9518747,1212
1749976375.9522285,1429
1749976375.9525614,1844
1749976375.9528897,2215
1749976375.9532182,2377
1749976375.9535463,2318
1749976375.9538739,2094
1749976375.9542024,1794
1749976375.9628224,1510
1749976376.0597355,1292
1749976376.1928182,1206
1749976376.201632,1375
1749976376.21725,1771
1749976376.222941,2175
1749976376.2335846,2381
1749976376.2336752,2360
1749976376.2337542,2153
1749976376.2338316,1857
1749976376.23391,1566
1749976376.2339878,1339
1749976376.2340658,1223
1749976376.2341433,1344
1749976376.2342198,1706
1749976376.234297,2123
1749976376.2343738,2364
1749976376.2344503,2380
1749976376.236181,2198
1749976376.2362688,1910
1749976376.2363477,1610
1749976376.2364256,1369
1749976376.236504,1222
1749976376.2365816,1295
1749976376.2366593,1626
1749976376.2367365,2060
1749976376.236813,2347
1749976376.23689,2404
1749976376.2369673,2250
1749976376.237045,1975
1749976376.237123,1670
1749976376.2371998,1419
1749976376.2372773,1247
1749976376.2373543,1267
1749976376.237431,1550
1749976376.2375083,1982
1749976376.2375908,2308
1749976376.2376676,2410
1749976376.237744,2288
1749976376.2378209,2023
1749976376.2378972,1713
1749976376.2379742,1453
1749976376.2380507,1268
1749976376.2381275,1250
1749976376.2382042,1492
1749976376.2382817,1915
1749976376.2383585,2273
1749976376.238435,2415
1749976376.2409582,2332
1749976376.241069,2089
1749976376.24115,1781
1749976376.2412279,1508
1749976376.241305,1304
1749976376.2413826,1243
1749976376.2414591,1439
1749976376.2416053,1848
1749976376.2416847,2237
1749976376.2417629,2421
1749976376.2418404,2376
1749976376.2419176,2152
1749976376.2420094,1847
1749976376.2421026,1559
1749976376.24218,1336
1749976376.2422569,1233
1749976376.242334,1375
1749976376.242691,1752
1749976376.2427692,2160
1749976376.2430406,2384
1749976376.2431183,2382
1749976376.2431955,2186
1749976376.2443585,1890
1749976376.244439,1593
1749976376.2445168,1362
1749976376.2445934,1237
1749976376.2446702,1342
1749976376.244764,1694
1749976376.254575,2119
1749976376.2546518,2382
1749976376.2547235,2422
1749976376.254796,2256
1749976376.254865,1973
1749976376.2884803,1667
1749976376.3569968,1422
1749976376.357082,1268
1749976376.3571565,1325
1749976376.3572316,1636
1749976376.3630602,2061
1749976376.363151,2353
1749976376.3632338,2425
1749976376.3633318,2288
1749976376.3811786,2021
1749976376.3823266,1711
1749976376.3824117,1449
1749976376.3824852,1268
1749976376.3825545,1277
1749976376.3826332,1552
1749976376.3827121,1984
1749976376.3827913,2316
1749976376.3828719,2424
1749976376.382951,2313
1749976376.383031,2057
1749976376.3831155,1749
1749976376.3831935,1481
1749976376.3832707,1285
1749976376.38333,1249
1749976376.3834107,1474
1749976376.3834887,1893
1749976376.3835678,2263
1749976376.383646,2422
1749976376.383724,2355
1749976376.3838024,2119
1749976376.3838806,1809
1749976376.383959,1528
1749976376.384037,1318
1749976376.3841155,1245
1749976376.384194,1425
1749976376.3842719,1823
1749976376.3843503,2218
1749976376.3844285,2412
1749976376.3845067,2366
1749976376.3845847,2120
1749976376.3846633,1776
1749976376.384741,1447
1749976376.3848193,1197
1749976376.384898,1068
1749976376.3849802,1173
1749976376.3850594,1506
1749976376.3851368,1886
1749976376.3852148,2106
1749976376.3852928,2123
1749976376.3853707,1956
1749976376.385463,1684
1749976376.3855414,1395
1749976376.3856194,1165
1749976376.3856976,1038
1749976376.3857756,1141
1749976376.3858535,1499
1749976376.3859317,1943
1749976376.38601,2227
1749976376.3860884,2278
1749976376.3861668,2120
1749976376.3862445,1845
1749976376.3863223,1548
1749976376.3864,1310
1749976376.38648,1157
1749976376.3865418,1208
1749976376.3866086,1521
1749976376.3866868,1966
1749976376.3867652,2286
1749976376.3868432,2375
1749976376.3869212,2245
1749976376.3870044,1980
1749976376.3870866,1672
1749976376.3871655,1416
1749976376.3872433,1238
1749976376.3873217,1239
1749976376.387401,1503
1749976376.3874788,1936
1749976376.4047954,2288
1749976376.404877,2424
1749976376.4049516,2339
1749976376.4050245,2095
1749976376.4050975,1786
1749976376.4051697,1513
1749976376.4052424,1318
1749976376.4053152,1276
1749976376.4140654,1483
1749976376.4146016,1879
1749976376.4149568,2238
1749976376.415326,2404
1749976376.4157512,2361
1749976376.4555542,2143
1749976376.4556787,1831
1749976376.4557865,1533
1749976376.4940946,1315
1749976376.4952004,1250
1749976376.4952793,1446
1749976376.4953914,1857
1749976376.4954774,2261
1749976376.4955528,2462
1749976376.4956255,2437
1749976376.4956975,2231
1749976376.495769,1934
1749976376.4958405,1638
1749976376.4959118,1402
1749976376.4960096,1277
1749976376.496081,1392
1749976376.496153,1757
1749976376.496225,2183
1749976376.4962962,2439
1749976376.4963675,2466
1749976376.4964387,2290
1749976376.49651,2004
1749976376.496581,1702
1749976376.4966521,1457
1749976376.4967804,1306
1749976376.4968626,1377
1749976376.4969354,1712
1749976376.4970078,2155
1749976376.49708,2449
1749976376.4971602,2507
1749976376.497227,2347
1749976376.497297,2064
1749976376.4973648,1752
1749976376.4974332,1494
1749976376.4975007,1315
1749976376.4975698,1331
1749976376.4976382,1617
1749976376.4977052,2059
1749976376.4977744,2393
1749976376.4978411,2497
1749976376.4979076,2372
1749976376.4979699,2104
1749976376.4980354,1791
1749976376.4981043,1525
1749976376.4981704,1331
1749976376.4982407,1305
1749976376.4983075,1544
1749976376.498373,1971
1749976376.4984334,2335
1749976376.498496,2481
1749976376.4985662,2400
1749976376.498637,2158
1749976376.4987028,1852
1749976376.4987829,1577
1749976376.4988496,1371
1749976376.498916,1307
1749976376.4989815,1502
1749976376.4990509,1909
1749976376.4991214,2297
1749976376.4991875,2480
1749976376.4992464,2436
1749976376.49931,2213
1749976376.4993773,1907
1749976376.4994438,1616
1749976376.500292,1393
1749976376.50619,1296
1749976376.5249944,1447
1749976376.5250828,1829
1749976376.5251641,2233
1749976376.525243,2448
1749976376.525322,2441
1749976376.5254087,2247
1749976376.5254872,1959
1749976376.5255668,1666
1749976376.5256445,1429
1749976376.525723,1293
1749976376.5258017,1393
1749976376.5258791,1746
1749976376.5259569,2173
1749976376.5260339,2429
1749976376.5261116,2454
1749976376.5261827,2279
1749976376.5262525,1999
1749976376.5263221,1704
1749976376.5263913,1464
1749976376.5264611,1305
1749976376.5265205,1351
1749976376.5265992,1657
1749976376.5266688,2083
1749976376.548485,2377
1749976376.6049001,2447
1749976376.6050174,2307
1749976376.6051247,2041
1749976376.606665,1737
1749976376.6067617,1480
1749976376.6068523,1297
1749976376.607034,1301
1749976376.6071062,1571
1749976376.6071715,1999
1749976376.6072347,2328
1749976376.6072953,2434
1749976376.6073613,2325
1749976376.6074262,2075
1749976376.6074934,1774
1749976376.6075604,1511
1749976376.6076267,1316
1749976376.6076922,1279
1749976376.6077578,1505
1749976376.6078234,1922
1749976376.6078887,2284
1749976376.607954,2432
1749976376.6080205,2359
1749976376.608087,2126
1749976376.608154,1828
1749976376.6082194,1558
1749976376.6082885,1351
1749976376.6083567,1275
1749976376.608423,1448
1749976376.6084888,1841
1749976376.6085556,2232
1749976376.6086216,2426
1749976376.6086879,2394
1749976376.608777,2180
1749976376.6088428,1880
1749976376.6089087,1592
1749976376.608975,1370
1749976376.6090398,1260
1749976376.609106,1388
1749976376.6091785,1755
1749976376.609246,2169
1749976376.60931,2402
1749976376.6093764,2405
1749976376.6094415,2212
1749976376.609507,1922
1749976376.6095726,1631
1749976376.609637,1402
1749976376.6097023,1264
1749976376.6097674,1343
1749976376.6098328,1676
1749976376.609898,2103
1749976376.609964,2378
1749976376.6100311,2423
1749976376.6100953,2257
1749976376.6101604,1978
1749976376.6102254,1678
1749976376.6102912,1435
1749976376.6103556,1272
1749976376.6104214,1305
1749976376.6104856,1600
1749976376.6105442,2032
1749976376.6106021,2344
1749976376.6106608,2429
1749976376.6107192,2297
1749976376.6107774,2033
1749976376.6108358,1727
1749976376.6108935,1468
1749976376.610952,1279
1749976376.6110222,1267
1749976376.6110873,1521
1749976376.611162,1951
1749976376.6112266,2299
1749976376.6112916,2426
1749976376.611352,2329
1749976376.6114109,2080
1749976376.61147,1771
1749976376.6115286,1498
1749976376.6115868,1293
1749976376.611646,1241
1749976376.6117039,1453
1749976376.6117635,1871
1749976376.6118214,2253
1749976376.6118796,2421
1749976376.6119385,2362
1749976376.6119976,2131
1749976376.6120741,1826
1749976376.6121426,1541
1749976376.6122077,1323
1749976376.6122737,1233
1749976376.6123393,1397
1749976376.6124053,1791
1749976376.6124713,2196
1749976376.6125367,2402
1749976376.6126025,2380
1749976376.6126676,2172
1749976376.6127338,1878
1749976376.6127994,1586
1749976376.6128652,1353
1749976376.612931,1225
1749976376.6129968,1334
1749976376.6130626,1697
1749976376.6131432,2127
1749976376.6132092,2383
1749976376.6132748,2404
1749976376.6133404,2218
1749976376.6134062,1923
1749976376.6134748,1617
1749976376.6137133,1374
1749976376.6137795,1224
1749976376.6536405,1290
1749976376.7009227,1611
1749976376.7040145,2041
1749976376.7052944,2330
1749976376.7063205,2394
1749976376.70728,2245
1749976376.708184,1970
1749976376.709075,1662
1749976376.7101305,1408
1749976376.7114155,1235
1749976376.7122931,1254
1749976376.7501097,1536
1749976376.7892706,1969
1749976376.789629,2296
1749976376.7899773,2398
1749976376.7903366,2276
1749976376.809785,2013
1749976376.8138132,1705
1749976376.8138947,1447
1749976376.8246589,1261
1749976376.8263876,1236
1749976376.8273935,1469
1749976376.8284206,1889
1749976376.8301125,2250
1749976376.831878,2397
1749976376.869091,2318
1749976376.8912854,2074
1749976376.931996,1765
1749976376.9572816,1489
1749976376.957397,1283
1749976376.9575036,1220
1749976376.969283,1416
1749976376.987161,1829
1749976377.0012603,2224
1749976377.0016043,2409
1749976377.001939,2362
1749976377.0113833,2137
1749976377.0117154,1838
1749976377.0120444,1560
1749976377.012427,1347
1749976377.0127845,1247
1749976377.0293243,1388
1749976377.029415,1765
1749976377.029496,2178
1749976377.0295753,2406
1749976377.0296545,2403
1749976377.0297346,2202
1749976377.0298135,1904
1749976377.0298924,1607
1749976377.029981,1376
1749976377.0300596,1245
1749976377.0422246,1340
1749976377.0423486,1684
1749976377.042465,2108
1749976377.0425656,2374
1749976377.0426803,2413
1749976377.0427942,2242
1749976377.042909,1951
1749976377.0430226,1634
1749976377.0431366,1374
1749976377.04325,1202
1749976377.043348,1240
1749976377.0434613,1539
1749976377.0435753,1962
1749976377.0436893,2256
1749976377.0438108,2325
1749976377.0439243,2181
1749976377.0440376,1911
1749976377.0441513,1609
1749976377.0442653,1361
1749976377.0443792,1188
1749976377.0624585,1195
1749976377.0625296,1463
1749976377.0626009,1894
1749976377.0626733,2237
1749976377.062745,2360
1749976377.0628169,2262
1749976377.0628886,2014
1749976377.0629601,1710
1749976377.0630314,1448
1749976377.0631025,1256
1749976377.0631742,1222
1749976377.063246,1446
1749976377.0633054,1865
1749976377.0633807,2236
1749976377.0634441,2396
1749976377.0635104,2330
1749976377.063578,2098
1749976377.0636435,1795
1749976377.0637124,1522
1749976377.0637777,1319
1749976377.0638456,1248
1749976377.0639167,1424
1749976377.063986,1815
1749976377.0640514,2203
1749976377.064117,2397
1749976377.0641856,2370
1749976377.0642502,2164
1749976377.0643156,1870
1749976377.0643823,1584
1749976377.064448,1363
1749976377.064517,1253
1749976377.0645838,1380
1749976377.0646517,1746
1749976377.0647233,2158
1749976377.0648277,2393
1749976377.0648987,2402
1749976377.0649657,2213
1749976377.0650337,1925
1749976377.0650992,1632
1749976377.0651677,1403
1749976377.065233,1266
1749976377.0652988,1343
1749976377.065365,1669
1749976377.06544,2092
1749976377.065507,2369
1749976377.0655723,2422
1749976377.0656393,2263
1749976377.0657053,1983
1749976377.065771,1680
1749976377.0658379,1437
1749976377.065904,1278
1749976377.0659719,1312
1749976377.0660381,1604
1749976377.0661037,2033
1749976377.0661724,2348
1749976377.06624,2441
1749976377.066311,2318
1749976377.066377,2058
1749976377.0664356,1758
1749976377.0665076,1505
1749976377.066573,1322
1749976377.0666378,1304
1749976377.0667038,1546
1749976377.0667696,1966
1749976377.0668356,2316
1749976377.066902,2450
1749976377.0669675,2360
1749976377.0670335,2115
1749976377.0670996,1810
1749976377.067166,1545
1749976377.0672264,1350
1749976377.0872705,1300
1749976377.1124752,1503
1749976377.121034,1908
1749976377.1211133,2282
1749976377.1219773,2450
1749976377.1240864,2394
1749976377.1361918,2167
1749976377.136287,1864
1749976377.1376383,1586
1749976377.137716,1380
1749976377.1377885,1301
1749976377.1378598,1465
1749976377.1379316,1849
1749976377.1398723,2244
1749976377.1402967,2449
1749976377.14037,2436
1749976377.1434941,2241
1749976377.1439457,1955
1749976377.1440282,1666
1749976377.144099,1434
1749976377.1471002,1304
1749976377.1471765,1408
1749976377.1472483,1764
1749976377.147308,2182
1749976377.147375,2424
1749976377.1474462,2436
1749976377.147517,2255
1749976377.147588,1984
1749976377.1476593,1707
1749976377.1477304,1479
1749976377.1478016,1325
1749976377.1478724,1380
1749976377.147946,1707
1749976377.1480165,2156
1749976377.1480873,2456
1749976377.1481583,2510
1749976377.1482291,2343
1749976377.1482997,2065
1749976377.1483715,1770
1749976377.1484425,1527
1749976377.1485128,1344
1749976377.1485837,1335
1749976377.148655,1595
1749976377.1487331,2023
1749976377.1488066,2356
1749976377.1488779,2462
1749976377.1489487,2347
1749976377.1490197,2095
1749976377.1490908,1804
1749976377.149162,1555
1749976377.1492329,1362
1749976377.1493084,1318
1749976377.1493828,1534
1749976377.149457,1945
1749976377.1495314,2304
1749976377.149606,2447
1749976377.1496804,2363
1749976377.1497543,2123
1749976377.1498284,1827
1749976377.14991,1568
1749976377.1499887,1371
1749976377.1500626,1297
1749976377.1501374,1468
1749976377.1502113,1855
1749976377.1502857,2237
1749976377.15036,2421
1749976377.1504345,2379
1749976377.1505063,2161
1749976377.150565,1871
1749976377.1506307,1600
1749976377.1507053,1390
1749976377.1507804,1283
1749976377.1508546,1409
1749976377.1509287,1771
1749976377.1510026,2174
1749976377.1510768,2396
1749976377.1511512,2391
1749976377.1512256,2194
1749976377.1512957,1909
1749976377.1513565,1627
1749976377.151416,1405
1749976377.1514916,1271
1749976377.188311,1358
1749976377.1951714,1701
1749976377.1953137,2131
1749976377.250747,2396
1749976377.251167,2425
1749976377.2731464,2250
1749976377.2733054,1975
1749976377.2735057,1687
1749976377.2735791,1450
1749976377.2736526,1285
1749976377.273727,1318
1749976377.273806,1621
1749976377.2738793,2058
1749976377.2739515,2365
1749976377.2740269,2434
1749976377.2741015,2289
1749976377.2741766,2025
1749976377.2742517,1732
1749976377.2743256,1482
1749976377.2743979,1292
1749976377.274472,1275
1749976377.2745469,1530
1749976377.27462,1962
1749976377.2747555,2310
1749976377.2748291,2431
1749976377.2749035,2328
1749976377.2749789,2079
1749976377.2750537,1779
1749976377.2751288,1515
1749976377.2824388,1315
1749976377.2924657,1266
1749976377.2941773,1480
1749976377.3455737,1896
1749976377.3883646,2270
1749976377.3988008,2429
1749976377.4271412,2360
1749976377.4730675,2128
1749976377.473178,1830
1749976377.4789526,1556
1749976377.5273893,1345
1749976377.5529916,1259
1749976377.563584,1422
1749976377.5636735,1812
1749976377.56376,2210
1749976377.5638304,2410
1749976377.5638978,2381
1749976377.563982,2167
1749976377.5640566,1869
1749976377.5641496,1579
1749976377.564232,1351
1749976377.5643184,1234
1749976377.564408,1360
1749976377.564497,1734
1749976377.5645795,2163
1749976377.5646691,2408
1749976377.564755,2417
1749976377.5648336,2224
1749976377.56492,1932
1749976377.5650015,1632
1749976377.5650873,1392
1749976377.5651677,1243
1749976377.5652566,1313
1749976377.5653417,1643
1749976377.565451,2081
1749976377.5655274,2371
1749976377.5656059,2429
1749976377.5656984,2271
1749976377.5657842,1991
1749976377.5658646,1682
1749976377.5659535,1429
1749976377.5660357,1256
1749976377.56613,1284
1749976377.5662193,1582
1749976377.5663023,2029
1749976377.566377,2361
1749976377.5664437,2459
1749976377.566521,2331
1749976377.566605,2066
1749976377.5666995,1760
1749976377.5667794,1501
1749976377.5668688,1309
1749976377.5669575,1287
1749976377.567051,1534
1749976377.5671265,1971
1749976377.5672004,2339
1749976377.5672717,2477
1749976377.567358,2380
1749976377.5674508,2123
1749976377.5675497,1811
1749976377.5676355,1538
1749976377.567734,1332
1749976377.5678236,1270
1749976377.5679176,1470
1749976377.5680017,1889
1749976377.5680945,2287
1749976377.5681796,2471
1749976377.5682719,2415
1749976377.5683641,2179
1749976377.5684416,1866
1749976377.5685256,1576
1749976377.5686147,1353
1749976377.5686986,1255
1749976377.5687823,1406
1749976377.5689185,1792
1749976377.569004,2204
1749976377.569081,2426
1749976377.5755172,2418
1749976377.6057014,2217
1749976377.605806,1918
1749976377.6058788,1617
1749976377.6059546,1376
1749976377.6060266,1242
1749976377.6061087,1349
1749976377.6061752,1709
1749976377.6062415,2136
1749976377.6063108,2388
1749976377.6063766,2407
1749976377.6064358,2225
1749976377.6064997,1940
1749976377.6065667,1641
1749976377.6066341,1396
1749976377.6067,1236
1749976377.6095688,1291
1749976377.6100168,1613
1749976377.6416233,2054
1749976377.652004,2352
1749976377.6521912,2414
1749976377.6522763,2259
1749976377.6523955,1983
1749976377.6524804,1680
1749976377.6525645,1430
1749976377.6526494,1253
1749976377.652733,1262
1749976377.6528368,1539
1749976377.6529205,1977
1749976377.6530037,2315
1749976377.6530874,2423
1749976377.653172,2304
1749976377.6532588,2041
1749976377.653342,1732
1749976377.653426,1467
1749976377.653509,1270
1749976377.6535928,1235
1749976377.6545444,1466
1749976377.6546316,1892
1749976377.654717,2266
1749976377.6548014,2421
1749976377.6548753,2345
1749976377.657421,2100
1749976377.6575058,1788
1749976377.6575778,1510
1749976377.657658,1305
1749976377.65773,1240
1749976377.6578078,1428
1749976377.6578877,1829
1749976377.6579607,2221
1749976377.6580327,2413
1749976377.6581094,2378
1749976377.6581862,2161
1749976377.6582627,1858
1749976377.658335,1568
1749976377.6584013,1346
1749976377.658465,1242
1749976377.6585367,1381
1749976377.6586142,1757
1749976377.6586864,2172
1749976377.658795,2404
1749976377.6588666,2407
1749976377.658947,2210
1749976377.6590195,1912
1749976377.6590962,1609
1749976377.6591687,1371
1749976377.6592314,1237
1749976377.6592991,1333
1749976377.6593668,1683
1749976377.6594343,2117
1749976377.659504,2389
1749976377.6595721,2430
1749976377.6596415,2261
1749976377.6597097,1978
1749976377.6597764,1673
1749976377.6598434,1423
1749976377.659913,1255
1749976377.6599805,1293
1749976377.6600497,1598
1749976377.660119,2039
1749976377.6601858,2354
1749976377.6602526,2436
1749976377.6603222,2296
1749976377.6603892,2023
1749976377.6604588,1715
1749976377.6605597,1457
1749976377.6606286,1273
1749976377.6607,1266
1749976377.660767,1526
1749976377.6608348,1959
1749976377.660904,2306
1749976377.6609714,2430
1749976377.661043,2326
1749976377.6611145,2070
1749976377.6611822,1759
1749976377.6612518,1487
1749976377.6613197,1287
1749976377.661389,1245
1749976377.6614587,1469
1749976377.6615248,1893
1749976377.661594,2269
1749976377.6616652,2429
1749976377.6617365,2362
1749976377.661807,2130
1749976377.6618783,1827
1749976377.6619496,1546
1749976377.662026,1328
1749976377.6621132,1241
1749976377.6621852,1410
1749976377.6622565,1808
1749976377.6623278,2211
1749976377.6623979,2415
1749976377.6624687,2387
1749976377.662528,2173
1749976377.6625946,1875
1749976377.6626658,1589
1749976377.6627378,1366
1749976377.6628098,1249
1749976377.6628816,1366
1749976377.662953,1730
1749976377.6630254,2153
1749976377.663107,2401
1749976377.6631684,2415
1749976377.668416,2225
1749976377.6695094,1933
1749976377.6696942,1637
1749976377.6697674,1404
1749976377.6699185,1258
1749976377.66999,1327
1749976377.700402,1653
1749976377.7341726,2087
1749976377.7354534,2375
1749976377.7632551,2429
1749976377.7679715,2264
1749976377.7682786,1981
1749976377.7689939,1679
1749976377.769099,1435
1749976377.7692034,1266
1749976377.7693138,1285
1749976377.769417,1565
1749976377.7695217,1995
1749976377.7696257,2317
1749976377.7697296,2412
1749976377.7698326,2283
1749976377.769936,2013
1749976377.7700396,1705
1749976377.7701423,1448
1749976377.7702453,1263
1749976377.7703488,1242
1749976377.7704523,1481
1749976377.770556,1901
1749976377.7863607,2255
1749976377.8133261,2393
1749976377.8176105,2306
1749976377.8283038,2060
1749976377.828539,1751
1749976377.8320172,1480
1749976377.8329616,1280
1749976377.833086,1226
1749976377.8332043,1425
1749976377.8333366,1829
1749976377.8334553,2208
1749976377.833574,2388
1749976377.833754,2346
1749976377.8338614,2127
1749976377.8339677,1825
1749976377.834074,1538
1749976377.834197,1319
1749976377.834304,1225
1749976377.8344102,1376
1749976377.834626,1754
1749976377.8347347,2153
1749976377.8348434,2366
1749976377.8349514,2358
1749976377.8350701,2159
1749976377.8351781,1865
1749976377.8354237,1570
1749976377.8355489,1342
1749976377.8356564,1219
1749976377.8357632,1326
1749976377.8366015,1678
1749976377.8373618,2096
1749976377.8966181,2349
1749976377.903953,2378
1749976377.9040334,2209
1749976377.9046936,1931
1749976377.9047792,1634
1749976377.9048536,1392
1749976377.9049227,1237
1749976377.9049935,1293
1749976377.9050658,1609
1749976377.905151,2039
1749976377.9052217,2329
1749976377.905291,2394
1749976377.90536,2251
1749976377.9056406,1986
1749976377.9057188,1688
1749976377.905789,1438
1749976377.9058588,1262
1749976377.9059272,1271
1749976377.9059966,1542
1749976377.9060638,1969
1749976377.9063628,2296
1749976377.906425,2402
1749976377.9064853,2293
1749976377.9065516,2041
1749976377.9066198,1739
1749976377.906687,1479
1749976377.9067564,1290
1749976377.9068244,1263
1749976377.906895,1494
1749976377.9069653,1910
1749976377.9070346,2268
1749976377.9071047,2414
1749976377.9071739,2342
1749976377.9072332,2110
1749976377.907298,1807
1749976377.9073653,1530
1749976377.9074326,1319
1749976377.9075007,1247
1749976377.9075682,1431
1749976377.9076357,1832
1749976377.907705,2221
1749976377.9077744,2405
1749976377.9078436,2364
1749976377.9079127,2147
1749976377.9079823,1851
1749976377.9080493,1567
1749976377.9081175,1344
1749976377.9081895,1232
1749976377.9082563,1366
1749976377.908323,1746
1749976377.9083922,2166
1749976377.9084585,2398
1749976377.9085257,2396
1749976377.9085968,2202
1749976377.9086685,1919
1749976377.9087615,1636
1749976377.9088335,1405
1749976377.908901,1259
1749976377.9089673,1338
1749976377.9090364,1682
1749976377.9091034,2124
1749976377.9091754,2403
1749976377.9092486,2437
1749976377.928905,2257
1749976377.9289877,1974
1749976377.9290586,1683
1749976377.9291275,1449
1749976377.9291947,1286
1749976377.9292622,1315
1749976377.9293318,1612
1749976377.929401,2050
1749976377.929472,2366
1749976377.9295418,2447
1749976377.9296093,2308
1749976377.9296768,2045
1749976377.9297557,1751
1749976377.9298265,1502
1749976377.929899,1313
1749976377.929968,1295
1749976377.930036,1550
1749976377.930105,1990
1749976377.930173,2346
1749976377.9302418,2465
1749976377.9303148,2352
1749976377.93038,2093
1749976377.9304411,1791
1749976377.9305105,1532
1749976377.9305775,1331
1749976377.9306457,1274
1749976377.9307148,1481
1749976377.930781,1899
1749976377.930848,2280
1749976377.9309165,2441
1749976377.9309857,2371
1749976377.9310532,2140
1749976377.9311194,1850
1749976377.9311843,1585
1749976377.9312449,1372
1749976377.9313107,1275
1749976377.9313803,1429
1749976377.9314494,1820
1749976377.9315164,2226
1749976377.9315834,2430
1749976377.9316506,2399
1749976377.9317214,2181
1749976377.9317935,1885
1749976377.9318645,1603
1749976377.9319355,1385
1749976377.9320061,1267
1749976377.9320846,1381
1749976377.9322972,1741
1749976377.9323707,2162
1749976377.9324512,2410
1749976377.9325411,2427
1749976377.9919548,2241
1749976378.010775,1952
1749976378.0352275,1656
1749976378.039825,1423
1749976378.0400476,1279
1749976378.041091,1347
1749976378.0447679,1669
1749976378.0451066,2099
1749976378.0454698,2386
1749976378.045811,2445
1749976378.0461502,2291
1749976378.0465965,2015
1749976378.046929,1714
1749976378.0473623,1469
1749976378.0477004,1303
1749976378.0480406,1326
1749976378.0483785,1608
1749976378.0487547,2035
1749976378.0490892,2355
1749976378.0494277,2451
1749976378.049767,2329
1749976378.0500953,2069
1749976378.0505302,1765
1749976378.0508704,1506
1749976378.0512938,1316
1749976378.051633,1293
1749976378.0519695,1536
1749976378.1324825,1963
1749976378.1612487,2319
1749976378.1630874,2454
1749976378.1631658,2363
1749976378.1748633,2119
1749976378.1858633,1817
1749976378.186995,1550
1749976378.1877882,1347
1749976378.188189,1284
1749976378.1882977,1479
1749976378.188404,1888
1749976378.1885095,2277
1749976378.220883,2458
1749976378.2249851,2407
1749976378.2251205,2180
1749976378.2252483,1875
1749976378.2253745,1591
1749976378.2350416,1372
1749976378.2356756,1272
1749976378.236062,1415
1749976378.2364414,1793
1749976378.2368298,2201
1749976378.2487133,2423
1749976378.253818,2415
1749976378.253973,2211
1749976378.2541218,1908
1749976378.2542698,1610
1749976378.255356,1379
1749976378.2555692,1254
1749976378.2557173,1355
1749976378.2559533,1701
1749976378.256309,2119
1749976378.256458,2377
1749976378.2565663,2410
1749976378.2566357,2240
1749976378.256706,1957
1749976378.2567759,1653
1749976378.256853,1407
1749976378.256923,1251
1749976378.2569935,1305
1749976378.257064,1619
1749976378.2571347,2051
1749976378.2572048,2346
1749976378.2572746,2412
1749976378.2573447,2264
1749976378.2574148,1992
1749976378.2574854,1685
1749976378.257555,1429
1749976378.2576246,1248
1749976378.2576945,1253
1749976378.2577639,1525
1749976378.2578335,1960
1749976378.257903,2299
1749976378.257973,2413
1749976378.2580426,2304
1749976378.2581122,2050
1749976378.258182,1743
1749976378.2582521,1477
1749976378.2747064,1281
1749976378.2755864,1245
1749976378.275661,1474
1749976378.2758265,1897
1749976378.2759092,2268
1749976378.2764206,2424
1749976378.2765057,2354
1749976378.2788403,2118
1749976378.2789235,1811
1749976378.2790022,1532
1749976378.2790797,1320
1749976378.2791574,1244
1749976378.289441,1420
1749976378.2896104,1815
1749976378.289754,2206
1749976378.3072147,2401
1749976378.336652,2373
1749976378.3567235,2162
1749976378.3644795,1861
1749976378.37507,1567
1749976378.415022,1340
1749976378.4393616,1232
1749976378.451344,1370
1749976378.486311,1746
1749976378.486489,2163
1749976378.4866512,2396
1749976378.4868119,2399
1749976378.4869857,2205
1749976378.4871602,1911
1749976378.4873211,1611
1749976378.4874814,1373
1749976378.487641,1233
1749976378.4878016,1319
1749976378.4879615,1661
1749976378.488121,2092
1749976378.4882803,2367
1749976378.488441,2411
1749976378.4886007,2247
1749976378.508066,1969
1749976378.6088214,1668
1749976378.6089025,1421
1749976378.6089704,1254
1749976378.609079,1291
1749976378.6091447,1593
1749976378.609211,2030
1749976378.6092758,2343
1749976378.6093416,2426
1749976378.6094074,2290
1749976378.6094723,2021
1749976378.6095364,1714
1749976378.6096013,1456
1749976378.6096656,1273
1749976378.6097305,1267
1749976378.6097953,1526
1749976378.6098602,1958
1749976378.609925,2307
1749976378.6099901,2431
1749976378.6100552,2330
1749976378.610124,2076
1749976378.6101887,1767
1749976378.6102538,1495
1749976378.6103187,1292
1749976378.6103797,1240
1749976378.6104386,1449
1749976378.610503,1866
1749976378.610568,2248
1749976378.6106331,2416
1749976378.6106977,2352
1749976378.6107635,2113
1749976378.6108315,1804
1749976378.6108954,1522
1749976378.6109598,1310
1749976378.6110244,1226
1749976378.6110892,1390
1749976378.6111531,1781
1749976378.6112113,2186
1749976378.6112807,2397
1749976378.6113453,2381
1749976378.6114101,2177
1749976378.6114748,1880
1749976378.6115396,1583
1749976378.6116045,1348
1749976378.6116693,1223
1749976378.6117337,1341
1749976378.6117985,1708
1749976378.611863,2132
1749976378.6119277,2377
1749976378.6119926,2391
1749976378.6120574,2210
1749976378.6121294,1927
1749976378.6121953,1633
1749976378.6122603,1394
1749976378.6287708,1244
1749976378.6392753,1311
1749976378.6403801,1637
1749976378.640733,2069
1749976378.640808,2355
1749976378.6408818,2413
1749976378.6443458,2262
1749976378.644423,1990
1749976378.6444957,1685
1749976378.6445677,1432
1749976378.64464,1259
1749976378.6447122,1281
1749976378.644784,1567
1749976378.6448555,1998
