1749979311.6067896,1087
1749979311.658525,1513
1749979311.7004368,1878
1749979311.7391503,2026
1749979311.7983403,1939
1749979311.8002312,1685
1749979311.8011405,1369
1749979311.8023672,1094
1749979311.8034875,881
1749979311.8044322,803
1749979311.8054843,982
1749979311.8064704,1389
1749979311.8075082,1789
1749979311.8094885,1984
1749979311.81035,1931
1749979311.8112876,1681
1749979311.8124082,1355
1749979311.8134518,1076
1749979311.814629,882
1749979311.8157935,799
1749979311.8168406,933
1749979311.8179584,1285
1749979311.8200746,1669
1749979311.8211093,1888
1749979311.8223143,1889
1749979311.82331,1685
1749979311.824283,1373
1749979311.825346,1074
1749979311.8264873,863
1749979311.8275015,762
1749979311.8285246,867
1749979311.830106,1188
1749979311.8314922,1567
1749979311.8324788,1805
1749979311.833598,1845
1749979311.8347745,1675
1749979311.8360028,1357
1749979311.8371396,1002
1749979311.8383262,729
1749979311.839569,588
1749979311.8406165,682
1749979311.8419623,1025
1749979311.843022,1472
1749979311.8440804,1804
1749979311.8450253,1950
1749979311.8462818,1890
1749979311.8472383,1654
1749979311.8483105,1327
1749979311.8492408,1035
1749979311.8505473,841
1749979311.852289,853
1749979311.8533235,1115
1749979311.8546236,1504
1749979311.8555686,1787
1749979311.8567233,1876
1749979311.8577118,1768
1749979311.8587592,1515
1749979311.8597696,1207
1749979311.8608956,963
1749979311.862074,818
1749979311.8638415,830
1749979311.864877,1058
1749979311.8657928,1425
1749979311.8669214,1732
1749979311.8678794,1870
1749979311.8689106,1822
1749979311.8698986,1599
1749979311.8710804,1267
1749979311.8716197,947
1749979311.872181,717
1749979311.8726883,659
1749979311.8731909,871
1749979311.8743107,1303
1749979311.8748171,1735
1749979311.8753846,1990
1749979311.8758955,2021
1749979311.8763897,1827
1749979311.8769197,1489
1749979311.8774273,1144
1749979311.8779266,896
1749979311.8784437,803
1749979311.8789537,953
1749979311.8794656,1308
1749979311.879972,1679
1749979311.8804917,1891
1749979311.8810022,1917
1749979311.8815112,1760
1749979311.8820357,1481
1749979311.88255,1178
1749979311.8830647,944
1749979311.8835714,825
1749979311.8841612,926
1749979311.8850582,1250
1749979311.8861992,1640
1749979311.8872647,1889
1749979311.8879108,1943
1749979311.8886838,1797
1749979311.8895152,1508
1749979311.891159,1176
1749979311.891649,918
1749979311.8925176,778
1749979311.8931785,852
1749979311.8944745,1161
1749979311.8994853,1571
1749979311.90304,1862
1749979311.9040234,1960
1749979311.9059234,1859
1749979311.9064262,1601
1749979311.9071069,1270
1749979311.9076188,984
1749979311.9081495,796
1749979311.908732,806
1749979311.9092484,1083
1749979311.909762,1529
1749979311.9102757,1909
1749979311.9107885,2094
1749979311.9112988,2051
1749979311.9118276,1813
1749979311.9123402,1475
1749979311.912853,1176
1749979311.9133978,975
1749979311.9139233,944
1749979311.9144583,1157
1749979311.9150045,1541
1749979311.9156065,1876
1749979311.9161613,2021
1749979311.9166963,1963
1749979311.9173408,1737
1749979311.918491,1430
1749979311.9232707,1154
1749979311.923563,957
1749979311.923758,884
1749979311.9239485,1045
1749979311.924125,1429
1749979311.92449,1832
1749979311.9249802,2059
1749979311.9254022,2068
1749979311.9259,1877
1749979311.9264572,1567
1749979311.9268336,1250
1749979311.9271839,999
1749979311.9275515,865
1749979311.927937,991
1749979311.9284546,1402
1749979311.9288495,1884
1749979311.9291117,2150
1749979311.9297652,2117
1749979311.93042,1843
1749979311.9308302,1492
1749979311.9311595,1214
1749979311.9315302,1058
1749979311.9319715,984
1749979311.9324698,1092
1749979311.932955,1467
1749979311.9332862,1989
1749979311.9336998,2390
1749979311.9341614,2548
1749979311.9346287,2479
1749979311.9350374,2302
1749979311.935434,2123
1749979311.9358795,1982
1749979311.9362783,1854
1749979311.9368405,1881
1749979311.9373791,2227
1749979311.9379015,2797
1749979311.938366,3239
1749979311.938867,3342
1749979311.939488,3131
1749979311.940254,2806
1749979311.9406962,2546
1749979311.9411628,2394
1749979311.9418268,2264
1749979311.9422388,2210
1749979311.9426641,2412
1749979311.9431703,2869
1749979311.9437401,3302
1749979311.9443474,3468
1749979311.9447396,3335
1749979311.9451494,3034
1749979311.9458256,2733
1749979311.946514,2519
1749979311.9470963,2356
1749979311.9477203,2273
1749979311.9485283,2430
1749979311.9490516,2844
1749979311.9495187,3278
1749979311.9497812,3481
1749979311.9502904,3401
1749979311.9510198,3125
1749979311.9514294,2814
1749979311.9519215,2568
1749979311.9521801,2381
1749979311.9526594,2258
1749979311.9530659,2353
1749979311.953387,2717
1749979311.9537618,3155
1749979311.954142,3388
1749979311.9545066,3331
1749979311.9548938,3051
1749979311.9551828,2728
1749979311.955256,2473
1749979311.9619195,2282
1749979311.9620004,2125
1749979311.9648056,2148
1749979311.9650886,2444
1749979311.974817,2878
1749979311.9749897,3164
1749979311.9751844,3172
1749979311.9755695,2929
1749979311.9757867,2605
1749979311.9759521,2326
1749979311.9761188,2119
1749979311.9762855,1947
1749979311.9764495,1936
1749979311.977098,2203
1749979311.977262,2664
1749979311.9796147,3039
1749979311.9798667,3154
1749979311.9800856,2979
1749979311.9803042,2628
1749979311.9805553,2231
1749979311.9807785,1884
1749979311.981017,1598
1749979311.9812655,1489
1749979311.981535,1664
1749979311.9817595,2047
1749979311.982073,2374
1749979311.982369,2486
1749979311.9826107,2368
1749979311.9828584,2117
1749979311.9831002,1832
1749979311.9833739,1573
1749979311.983651,1333
1749979311.9841232,1209
1749979311.984439,1348
1749979311.984658,1719
1749979311.984884,2061
1749979311.985172,2174
1749979311.9854064,2047
1749979311.9858599,1786
1749979311.9861486,1511
1749979311.9863522,1278
1749979311.986516,1059
1749979311.9867513,913
1749979311.986994,1023
1749979311.9872315,1420
1749979311.9874458,1864
1749979311.9877038,2098
1749979311.988014,2057
1749979311.9882698,1806
1749979311.9885209,1479
1749979311.9888172,1179
1749979311.9890888,927
1749979311.9893043,756
1749979311.9895313,824
1749979311.98978,1170
1749979311.9900236,1601
1749979311.9903028,1862
1749979311.9905412,1880
1749979311.9907784,1686
1749979311.9910402,1392
1749979311.9913075,1098
1749979311.991542,861
1749979311.9918113,700
1749979311.99208,748
1749979311.992338,1059
1749979311.992596,1479
1749979311.9928653,1756
1749979311.9931214,1804
1749979311.9933996,1640
1749979311.9936454,1359
1749979311.9939113,1060
1749979311.9943895,817
1749979311.9946465,642
1749979311.9949095,657
1749979311.9951897,937
1749979311.995407,1365
1749979311.9955266,1682
1749979311.9956481,1776
1749979311.9957678,1650
1749979311.9959867,1385
1749979311.9961061,1080
1749979311.9962397,822
1749979311.9984937,629
1749979311.9995372,603
1749979312.0104275,841
1749979312.0273209,1262
1749979312.0286574,1615
1749979312.030738,1757
1749979312.1218076,1675
1749979312.1403255,1430
1749979312.14041,1115
1749979312.1404881,837
1749979312.1405654,629
1749979312.1406422,573
1749979312.1407187,777
1749979312.140795,1187
1749979312.140872,1565
1749979312.140948,1739
1749979312.1410236,1694
1749979312.1411004,1478
1749979312.1411765,1181
1749979312.1412523,904
1749979312.1413286,687
1749979312.1414049,591
1749979312.1414812,739
1749979312.141557,1119
1749979312.1416407,1518
1749979312.14171,1730
1749979312.1417942,1718
1749979312.1418712,1517
1749979312.1419315,1222
1749979312.1420016,935
1749979312.142078,713
1749979312.1421537,591
1749979312.1422296,697
1749979312.1423347,1049
1749979312.1424413,1470
1749979312.1584966,1731
1749979312.1586,1770
1749979312.1586974,1604
1749979312.1587942,1318
1749979312.15889,1014
1749979312.1589856,770
1749979312.1590812,618
1749979312.1591763,682
1749979312.1592722,1009
1749979312.1593688,1449
1749979312.1594505,1750
1749979312.1595333,1824
1749979312.1596153,1684
1749979312.159698,1417
1749979312.1597795,1115
1749979312.1598616,864
1749979312.1599438,685
1749979312.1600244,694
1749979312.1601062,971
1749979312.1601882,1407
1749979312.1602707,1741
1749979312.1603527,1852
1749979312.1604338,1741
1749979312.1605155,1488
1749979312.1605973,1187
1749979312.1606789,931
1749979312.1607609,737
1749979312.1608422,701
1749979312.161089,931
1749979312.1611795,1359
1749979312.1612623,1735
1749979312.1613436,1899
1749979312.1614265,1833
1749979312.1615083,1596
1749979312.1615906,1287
1749979312.1616724,1011
1749979312.161758,802
1749979312.1823323,732
1749979312.1825073,920
1749979312.182676,1333
1749979312.1828444,1738
1749979312.1830318,1942
1749979312.1831992,1914
1749979312.1833663,1698
1749979312.183534,1395
1749979312.1837006,1111
1749979312.1838672,893
1749979312.1840343,788
1749979312.1845105,920
1749979312.1846278,1294
1749979312.184742,1712
1749979312.1848562,1955
1749979312.184979,1971
1749979312.1850932,1780
1749979312.279901,1482
1749979312.3234327,1186
1749979312.405263,963
1749979312.4167805,833
1749979312.4170878,910
1749979312.422269,1227
1749979312.557959,1635
1749979312.700232,1912
1749979312.7464314,1981
1749979312.7540522,1835
1749979312.829614,1544
1749979312.8363504,1222
1749979312.8373086,977
1749979312.848592,840
1749979312.9404724,906
1749979313.0509906,1209
1749979313.1423717,1621
1749979313.1503673,1920
1749979313.183504,2022
1749979313.2101314,1915
1749979313.2103307,1649
1749979313.223978,1318
1749979313.2248049,1046
1749979313.2261646,875
1749979313.226277,893
1749979313.22837,1154
1749979313.2286406,1561
1749979313.228714,1888
1749979313.2287824,2028
1749979313.2288487,1961
1749979313.228915,1721
1749979313.228989,1395
1749979313.229055,1109
1749979313.2291234,917
1749979313.2389247,893
1749979313.239004,1113
1749979313.2390761,1506
1749979313.2691443,1858
1749979313.3067677,2031
1749979313.4055898,2001
1749979313.424748,1786
1749979313.4248602,1464
1749979313.424963,1159
1749979313.4250603,943
1749979313.4251676,882
1749979313.4252694,1068
1749979313.4253726,1456
1749979313.425468,1840
1749979313.425568,2048
1749979313.4256725,2049
1749979313.4257672,1858
1749979313.425852,1549
1749979313.4259481,1236
1749979313.426114,1002
1749979313.4262087,896
1749979313.4343314,1025
1749979313.4344137,1383
1749979313.4344893,1792
1749979313.4345634,2049
1749979313.4346318,2100
1749979313.4360666,1940
1749979313.4361815,1639
1749979313.4364932,1312
1749979313.4365573,1064
1749979313.436618,934
1749979313.4366817,1019
1749979313.4367485,1337
1749979313.4368155,1749
1749979313.4368804,2045
1749979313.4369452,2152
1749979313.437012,2046
1749979313.43708,1775
1749979313.4371452,1444
1749979313.4372094,1180
1749979313.4372756,1029
1749979313.4373393,1082
1749979313.437406,1369
1749979313.4374712,1771
1749979313.437536,2070
1749979313.437601,2178
1749979313.437668,2080
1749979313.4377332,1815
1749979313.4377952,1476
1749979313.43786,1189
1749979313.4379287,1003
1749979313.4379942,1002
1749979313.4380598,1249
1749979313.4381254,1656
1749979313.4381895,1999
1749979313.4382555,2155
1749979313.4383204,2097
1749979313.4383872,1855
1749979313.438463,1516
1749979313.438531,1211
1749979313.4385955,1002
1749979313.4386597,961
1749979313.4387248,1169
1749979313.438792,1569
1749979313.438857,1944
1749979313.4389224,2142
1749979313.4389904,2132
1749979313.4390552,1928
1749979313.4391198,1609
1749979313.4391854,1294
1749979313.439257,1062
1749979313.4393215,973
1749979313.4393873,1129
1749979313.439453,1500
1749979313.439519,1892
1749979313.4395843,2118
1749979313.4396498,2140
1749979313.4397175,1964
1749979313.4397843,1664
1749979313.4398496,1352
1749979313.439915,1116
1749979313.439981,1002
1749979313.4400458,1116
1749979313.4401133,1462
1749979313.4401798,1869
1749979313.4402483,2127
1749979313.4403136,2181
1749979313.4403796,2031
1749979313.440454,1746
1749979313.440519,1428
1749979313.4405837,1174
1749979313.440649,1021
1749979313.4407141,1082
1749979313.4407794,1390
1749979313.4408472,1806
1749979313.4409132,2102
1749979313.4409783,2196
1749979313.4410431,2081
1749979313.4411094,1812
1749979313.4411774,1479
1749979313.4412465,1193
1749979313.4413214,1000
1749979313.441395,1008
1749979313.4414628,1273
1749979313.4415307,1683
1749979313.4415956,2000
1749979313.4416637,2117
1749979313.4417322,2029
1749979313.4442503,1783
1749979313.4461477,1467
1749979313.4462168,1194
1749979313.446283,1008
1749979313.446349,992
1749979313.4464147,1224
1749979313.4464815,1633
1749979313.449286,1994
1749979313.4559832,2168
1749979313.4586399,2131
1749979313.4587235,1906
1749979313.4587924,1580
1749979313.4588616,1280
1749979313.458927,1074
1749979313.4590137,1023
1749979313.459079,1218
1749979313.4591465,1612
1749979313.4592123,1998
1749979313.459279,2214
1749979313.459345,2221
1749979313.4594393,2028
1749979313.4595077,1709
1749979313.4595728,1389
1749979313.4596395,1156
1749979313.4597044,1064
1749979313.4597716,1211
1749979313.4609349,1574
1749979313.5008764,1966
1749979313.500956,2199
1749979313.5060198,2234
1749979313.5063233,2070
1749979313.5070727,1773
1749979313.5071423,1449
1749979313.5072079,1201
1749979313.5282762,1075
1749979313.6046028,1175
1749979313.6289194,1507
1749979313.6289966,1913
1749979313.6290696,2182
1749979313.6291413,2257
1749979313.629213,2128
1749979313.638185,1850
1749979313.6383219,1518
1749979313.64307,1251
1749979313.6431441,1093
1749979313.6432135,1148
1749979313.6459289,1446
1749979313.646004,1857
1749979313.6460712,2157
1749979313.6461391,2267
1749979313.6462064,2171
1749979313.6462722,1913
1749979313.6463373,1581
1749979313.6464033,1299
1749979313.6464698,1120
1749979313.6465366,1136
1749979313.6466017,1399
1749979313.6466672,1810
1749979313.6467326,2140
1749979313.6467986,2280
1749979313.6468642,2216
1749979313.64693,1980
1749979313.646997,1654
1749979313.6470628,1361
1749979313.6471298,1159
1749979313.6471958,1127
1749979313.6472616,1344
1749979313.6473277,1744
1749979313.6473932,2108
1749979313.6474617,2290
1749979313.6475308,2263
1749979313.6475973,2043
1749979313.6476634,1714
1749979313.6477294,1402
1749979313.6478019,1183
1749979313.647868,1115
1749979313.648091,1287
1749979313.6482773,1663
1749979313.648397,2046
1749979313.6486874,2264
1749979313.6488075,2282
1749979313.6490347,2099
1749979313.6491542,1785
1749979313.649276,1461
1749979313.6493952,1225
1749979313.6495152,1124
1749979313.6496763,1257
1749979313.6498117,1608
1749979313.650094,2005
1749979313.6503215,2253
1749979313.6504333,2306
1749979313.6505554,2157
1749979313.6506836,1865
1749979313.6792936,1536
1749979313.6860552,1279
1749979313.6861315,1139
1749979313.6909878,1220
1749979313.6911323,1537
1749979313.6912,1945
1749979313.691267,2228
1749979313.6913357,2316
1749979313.6914032,2196
1749979313.6914716,1921
1749979313.6915376,1588
1749979313.6916058,1319
1749979313.6916726,1156
1749979313.6917381,1195
1749979313.6918192,1477
1749979313.6918857,1886
1749979313.691953,2197
1749979313.6920183,2317
1749979313.692084,2230
1749979313.6921504,1977
1749979313.6922166,1645
1749979313.6922848,1359
1749979313.6923509,1169
1749979313.6924167,1160
1749979313.6924832,1400
1749979313.692543,1804
1749979313.6926959,2147
1749979313.692769,2307
1749979313.6928358,2263
1749979313.6929016,2039
1749979313.6929674,1715
1749979313.6930392,1415
1749979313.693116,1205
1749979313.6931896,1156
1749979313.6932638,1351
1749979313.6933382,1736
1749979313.693412,2101
1749979313.6934857,2292
1749979313.6935604,2283
1749979313.693634,2086
1749979313.6937075,1771
1749979313.693781,1461
1749979313.6938555,1235
1749979313.6939197,1150
1749979313.693978,1304
1749979313.694055,1669
1749979313.6941326,2056
1749979313.6942115,2282
1749979313.694289,2310
1749979313.6943796,2137
1749979313.6944647,1833
1749979313.6965444,1509
1749979313.6966162,1265
1749979313.6966815,1146
1749979313.6967556,1255
1749979313.6968296,1591
1749979313.696904,1990
1749979313.696982,2250
1749979313.6970558,2318
1749979313.6971304,2182
1749979313.6972046,1898
1749979313.697279,1571
1749979313.697353,1312
1749979313.6974263,1165
1749979313.6975005,1228
1749979313.6975741,1526
1749979313.7150688,1928
1749979313.7417576,2218
1749979313.7418568,2319
1749979313.7419732,2214
1749979313.7644067,1948
1749979313.7651415,1616
1749979313.765271,1345
1749979313.7929628,1180
1749979313.805002,1206
1749979313.8260477,1473
1749979313.8261414,1878
1749979313.826226,2203
1749979313.8263278,2342
1749979313.8264115,2272
1749979313.8264945,2025
1749979313.8265767,1689
1749979313.8266616,1397
1749979313.8274097,1206
1749979313.8274949,1188
1749979313.827579,1413
1749979313.8404038,1809
1749979313.8485444,2162
1749979313.8486323,2337
1749979313.8487096,2306
1749979313.848784,2086
1749979313.8488586,1758
1749979313.8489332,1450
1749979313.8490076,1234
1749979313.8490825,1170
1749979313.8491566,1347
1749979313.8492305,1722
1749979313.849305,2096
1749979313.849379,2305
1749979313.8494525,2314
1749979313.8495262,2125
1749979313.8496013,1812
1749979313.8496768,1496
1749979313.8497505,1266
1749979313.8498242,1169
1749979313.8499002,1302
1749979313.8499746,1650
1749979313.8500478,2036
1749979313.8501215,2274
1749979313.850195,2319
1749979313.850468,2163
1749979313.850541,1868
1749979313.8965974,1544
1749979313.8967423,1298
1749979313.8970547,1173
1749979313.897966,1266
1749979313.9014556,1588
1749979313.9025536,1988
1749979313.9026592,2257
1749979313.9027617,2334
1749979313.9028633,2206
1749979313.902977,1927
1749979313.9030783,1596
1749979313.9032001,1329
1749979313.9033065,1171
1749979313.9034228,1219
1749979313.903524,1509
1749979313.9036245,1920
1749979313.9180386,2227
1749979313.9181538,2344
1749979313.9182336,2255
1749979313.918313,2002
1749979313.9183927,1672
1749979313.9184954,1389
1749979313.9185748,1202
1749979313.918653,1202
1749979313.9187307,1449
1749979313.9188101,1854
1749979313.9188871,2188
1749979313.918964,2336
1749979313.9190416,2278
1749979313.919119,2043
1749979313.9192014,1713
1749979313.9192781,1415
1749979313.9193544,1209
1749979313.9194317,1167
1749979313.9195082,1370
1749979313.919584,1757
1749979313.9196613,2119
1749979313.9197376,2309
1749979313.919814,2299
1749979313.9198906,2097
1749979313.9199677,1776
1749979313.9200442,1464
1749979313.9201212,1243
1749979313.920198,1170
1749979313.9202747,1334
1749979313.9203508,1698
1749979313.920427,2074
1749979313.9205034,2292
1749979313.92058,2315
1749979313.9206398,2140
1749979313.9207053,1831
1749979313.9207823,1506
1749979313.9208586,1265
1749979313.920936,1157
1749979313.9210122,1278
1749979313.9210885,1621
1749979313.921165,2018
1749979313.9212418,2271
1749979313.921318,2330
1749979313.9213948,2186
1749979313.921471,1897
1749979313.921548,1571
1749979313.9216237,1319
1749979313.9216998,1179
1749979313.9217842,1252
1749979313.9218605,1557
1749979313.9219184,1960
1749979313.9219935,2245
1749979313.9220698,2339
1749979313.9221468,2229
1749979313.9222238,1961
1749979313.9223,1633
1749979313.922377,1364
1749979313.9224544,1198
1749979313.9225307,1224
1749979313.9226072,1490
1749979313.9371367,1889
1749979313.994508,2201
1749979314.0536482,2330
1749979314.0843647,2255
1749979314.08445,2007
1749979314.0845277,1674
1749979314.0846086,1385
1749979314.0994687,1196
1749979314.099553,1185
1749979314.0996273,1416
1749979314.0996997,1811
1749979314.0997732,2154
1749979314.0998454,2321
1749979314.0999174,2285
1749979314.0999897,2063
1749979314.100065,1732
1749979314.1001375,1427
1749979314.1002097,1220
1749979314.1002812,1174
1749979314.1003528,1366
1749979314.1004252,1742
1749979314.1004965,2102
1749979314.1005683,2296
1749979314.100628,2298
1749979314.100698,2111
1749979314.1007698,1801
1749979314.100841,1489
1749979314.1009128,1261
1749979314.1009843,1169
1749979314.101056,1311
1749979314.1011276,1666
1749979314.1011992,2054
1749979314.1012707,2289
1749979314.101342,2329
1749979314.1014137,2167
1749979314.1014855,1867
1749979314.101557,1542
1749979314.101629,1296
1749979314.1017,1172
1749979314.1017923,1274
1749979314.101867,1605
1749979314.1019382,2009
1749979314.1020184,2274
1749979314.102089,2343
1749979314.1021602,2209
1749979314.1022313,1930
1749979314.1023023,1607
1749979314.1023734,1349
1749979314.1024446,1192
1749979314.1025155,1236
1749979314.1025863,1519
1749979314.102657,1921
1749979314.1027281,2221
1749979314.1027994,2331
1749979314.1028697,2233
1749979314.1029418,1970
1749979314.1030123,1636
1749979314.1030834,1358
1749979314.1031542,1182
1749979314.103225,1193
1749979314.1032956,1447
1749979314.1033652,1847
1749979314.103435,2173
1749979314.1035051,2315
1749979314.1035748,2257
1749979314.1036458,2027
1749979314.1037192,1702
1749979314.1037886,1408
1749979314.103858,1203
1749979314.1039274,1166
1749979314.104002,1378
1749979314.1040728,1770
1749979314.1041434,2124
1749979314.1042132,2298
1749979314.1042826,2272
1749979314.1043522,2066
1749979314.1044223,1753
1749979314.1044917,1453
1749979314.104561,1237
1749979314.1046302,1167
1749979314.1046996,1338
1749979314.1047688,1712
1749979314.104838,2090
1749979314.104907,2298
1749979314.104976,2307
1749979314.105046,2124
1749979314.1240232,1819
1749979314.18393,1504
1749979314.191849,1270
1749979314.1919239,1163
1749979314.191996,1285
1749979314.1920674,1626
1749979314.202867,2016
1749979314.23331,2261
1749979314.2425387,2315
1749979314.2568345,2170
1749979314.2619298,1884
1749979314.2651818,1559
1749979314.2659054,1304
1749979314.271145,1166
1749979314.2712533,1249
1749979314.2713573,1566
1749979314.2714608,1969
1749979314.271564,2242
1749979314.2729669,2323
1749979314.2730887,2206
1749979314.273253,1941
1749979314.2742314,1618
1749979314.279148,1351
1749979314.2793307,1183
1749979314.2794352,1213
1749979314.2795382,1489
1749979314.2796412,1896
1749979314.279745,2208
1749979314.2798476,2330
1749979314.287886,2246
1749979314.2882268,1993
1749979314.2883317,1660
1749979314.2884462,1372
1749979314.2885525,1182
1749979314.341054,1171
1749979314.3621662,1405
1749979314.453136,1800
1749979314.4532242,2140
1749979314.4532914,2300
1749979314.4533572,2257
1749979314.4534254,2031
1749979314.4534972,1702
1749979314.4535682,1399
1749979314.4536378,1193
1749979314.4537091,1147
1749979314.4537807,1344
1749979314.453853,1726
1749979314.4539256,2088
1749979314.4569402,2280
1749979314.4570117,2273
1749979314.457079,2073
1749979314.4571483,1753
1749979314.4572155,1439
1749979314.4572802,1215
1749979314.457345,1133
1749979314.4574094,1286
1749979314.4574733,1648
1749979314.457538,2035
1749979314.457604,2266
1749979314.4576757,2303
1749979314.457749,2137
1749979314.4578228,1834
1749979314.4578996,1508
1749979314.4579718,1261
1749979314.4639542,1138
1749979314.464032,1241
1749979314.4641442,1571
1749979314.4642181,1970
1749979314.4642906,2230
1749979314.4643636,2296
1749979314.464435,2158
1749979314.4645073,1876
1749979314.4645789,1551
1749979314.4646523,1293
1749979314.4647238,1139
1749979314.4647949,1193
1749979314.4648676,1492
1749979314.4649394,1904
1749979314.4650102,2202
1749979314.4650815,2301
1749979314.465176,2188
1749979314.4652488,1923
1749979314.4653203,1604
1749979314.4653926,1343
1749979314.4654648,1172
1749979314.4655373,1180
1749979314.4656105,1433
1749979314.4656878,1839
1749979314.4657674,2171
1749979314.4658391,2313
1749979314.4659104,2241
1749979314.465983,1995
1749979314.466055,1668
1749979314.4661267,1385
1749979314.4661975,1190
1749979314.4662695,1156
1749979314.466341,1365
1749979314.4664123,1756
1749979314.4664845,2111
1749979314.4665573,2288
1749979314.4666305,2261
1749979314.4667046,2051
1749979314.466778,1737
1749979314.466852,1439
1749979314.4749947,1221
1749979314.5770042,1149
1749979314.6147327,1326
1749979314.614896,1715
1749979314.6220138,2103
1749979314.6221583,2309
1749979314.625261,2301
1749979314.6357074,2104
1749979314.6554742,1803
1749979314.6555626,1506
1749979314.6991787,1278
1749979314.6995282,1164
1749979314.6998618,1281
1749979314.7001946,1634
1749979314.7063746,2041
1749979314.706456,2287
1749979314.7065318,2320
1749979314.7066066,2150
1749979314.7066813,1858
1749979314.706788,1549
1749979314.7068634,1307
1749979314.706939,1164
1749979314.7070136,1236
1749979314.707089,1553
1749979314.7071633,1966
1749979314.7072358,2249
1749979314.7073085,2328
1749979314.7073834,2200
1749979314.7074578,1929
1749979314.7075758,1612
1749979314.7076583,1352
1749979314.7077315,1181
1749979314.7078047,1205
1749979314.7081633,1480
1749979314.7082362,1890
1749979314.708309,2201
1749979314.708383,2310
1749979314.7084706,2210
1749979314.708544,1954
1749979314.7122316,1635
1749979314.7123194,1363
1749979314.7123919,1178
1749979314.7124636,1171
1749979314.7160754,1424
1749979314.7161481,1849
1749979314.7162194,2204
1749979314.7162902,2350
1749979314.716361,2273
1749979314.7164302,2027
1749979314.7165,1711
1749979314.7165697,1435
1749979314.7166398,1232
1749979314.7167099,1167
1749979314.7167792,1342
1749979314.7168493,1723
1749979314.716915,2096
1749979314.7169845,2289
1749979314.7170544,2269
1749979314.717124,2059
1749979314.7171938,1749
1749979314.7172642,1451
1749979314.717334,1228
1749979314.7174037,1135
1749979314.717478,1293
1749979314.717548,1683
1749979314.7176175,2097
1749979314.7177484,2324
1749979314.7178192,2321
1749979314.7178888,2117
1749979314.7179694,1811
1749979314.7180414,1513
1749979314.718111,1284
1749979314.7181807,1152
1749979314.7182505,1237
1749979314.718321,1564
1749979314.7183917,1975
1749979314.7184744,2244
1749979314.7185457,2300
1749979314.7186165,2143
1749979314.7186868,1853
1749979314.7187572,1538
1749979314.718828,1291
1749979314.7188988,1141
1749979314.718969,1198
1749979314.7190402,1506
1749979314.7191107,1931
1749979314.7191806,2234
1749979314.7192512,2324
1749979314.7193215,2196
1749979314.719392,1921
1749979314.7194624,1601
1749979314.7195323,1340
1749979314.719603,1165
1749979314.719673,1181
1749979314.7197444,1459
1749979314.719815,1895
1749979314.7198856,2237
1749979314.719956,2357
1749979314.7200263,2249
1749979314.720097,1986
1749979314.7201667,1671
1749979314.720238,1404
1749979314.7203093,1205
1749979314.7203798,1156
1749979314.7204506,1368
1749979314.7205212,1785
1749979314.7205915,2167
1749979314.7206624,2344
1749979314.7207332,2287
1749979314.7208047,2048
1749979314.7208748,1733
1749979314.7209458,1451
1749979314.72102,1237
1749979314.7210925,1152
1749979314.7211633,1319
1749979314.721234,1714
1749979314.7213044,2118
1749979314.7213824,2332
1749979314.7214525,2315
1749979314.751941,2102
1749979314.8118172,1792
1749979314.8119006,1495
1749979314.8119771,1268
1749979314.8120515,1154
1749979314.8121252,1280
1749979314.8121994,1649
1749979314.8122733,2067
1749979314.812347,2311
1749979314.8124204,2331
1749979314.8124943,2147
1749979314.8125653,1851
1749979314.812626,1547
1749979314.812699,1308
1749979314.812771,1165
1749979314.8128421,1241
1749979314.8129137,1569
1749979314.8129857,1990
1749979314.8130574,2270
1749979314.8131292,2336
1749979314.8132007,2191
1749979314.8132725,1910
1749979314.813344,1591
1749979314.8134162,1332
1749979314.8134875,1162
1749979314.8135593,1192
1749979314.8136292,1476
1749979314.8136985,1890
1749979314.813767,2200
1749979314.813848,2308
1749979314.8139153,2203
1749979314.8139808,1941
1749979314.8140492,1619
1749979314.8141184,1351
1749979314.8141873,1174
1749979314.8142562,1177
1749979314.814325,1427
1749979314.8143935,1835
1749979314.8400972,2172
1749979314.8519678,2314
1749979314.9228666,2243
1749979314.9230392,2001
1749979314.9253716,1680
1749979314.9259276,1394
1749979314.9260044,1190
1749979314.9260828,1146
1749979314.9261582,1362
1749979314.9262269,1781
1749979314.9263413,2168
1749979314.9264193,2353
1749979314.926497,2311
1749979314.9265747,2083
1749979314.9266868,1769
1749979314.9268293,1477
1749979314.926907,1250
1749979314.9269826,1147
1749979314.92706,1292
1749979314.9271376,1675
1749979314.929843,2087
1749979314.929929,2317
1749979314.9303975,2318
1749979314.9304707,2119
1749979314.9305418,1818
1749979314.930613,1521
1749979314.9306862,1284
1749979314.930758,1146
1749979314.9308295,1240
1749979314.9309006,1593
1749979314.9309723,2024
1749979314.9310436,2293
1749979314.9311144,2331
1749979314.931186,2152
1749979314.9312563,1855
1749979314.931328,1547
1749979314.9313993,1301
1749979314.9314706,1141
1749979314.9315417,1190
1749979314.9316127,1504
1749979314.9316833,1940
1749979314.9317546,2244
1749979314.9318426,2321
1749979314.931915,2175
1749979314.931986,1893
1749979314.9320576,1580
1749979314.9321284,1324
1749979314.9322035,1144
1749979314.9322746,1149
1749979314.9323456,1419
1749979314.9324157,1850
1749979314.9324872,2188
1749979314.932558,2310
1749979314.932629,2207
1749979314.9327004,1949
1749979314.9327717,1633
1749979314.9328425,1361
1749979314.9329138,1159
1749979314.9329844,1122
1749979314.9330544,1352
1749979314.9331257,1778
1749979314.9518838,2152
1749979314.9535582,2316
1749979314.9540727,2248
1749979314.9988933,2006
1749979314.9990268,1688
1749979314.999125,1405
1749979314.9999206,1191
1749979315.0476916,1115
1749979315.0838249,1296
1749979315.0925062,1699
1749979315.092704,2096
1749979315.0927713,2299
1749979315.0935514,2275
1749979315.0936594,2063
1749979315.0937634,1759
1749979315.0939658,1470
1749979315.0940473,1245
1749979315.0941167,1133
1749979315.0941868,1263
1749979315.0942564,1636
1749979315.0943255,2051
1749979315.094396,2290
1749979315.0944655,2304
1749979315.0945349,2116
1749979315.0946045,1818
1749979315.0946748,1513
1749979315.0949242,1271
1749979315.094999,1130
1749979315.0950682,1218
1749979315.0951483,1564
1749979315.095218,1995
1749979315.0952876,2271
1749979315.095357,2323
1749979315.0954258,2165
1749979315.0954945,1883
1749979315.095563,1575
1749979315.0956323,1321
1749979315.0957012,1149
1749979315.0957701,1185
1749979315.0958393,1489
1749979315.0959084,1925
1749979315.0959773,2238
1749979315.0960457,2327
1749979315.0961146,2195
1749979315.0961833,1925
1749979315.096252,1614
1749979315.0963206,1356
1749979315.096389,1172
1749979315.0964582,1166
1749979315.0965266,1425
1749979315.096587,1858
1749979315.0966508,2213
1749979315.0967195,2356
1749979315.096788,2268
1749979315.0968566,2010
1749979315.0969253,1684
1749979315.0969944,1403
1749979315.0970626,1200
1749979315.097131,1152
1749979315.0972,1356
1749979315.0972686,1753
1749979315.0973372,2117
1749979315.097406,2292
1749979315.0974748,2253
1749979315.0975437,2032
1749979315.0976124,1714
1749979315.0976808,1415
1749979315.09775,1196
1749979315.1273541,1124
1749979315.149341,1309
1749979315.17236,1714
1749979315.21845,2115
1749979315.2222126,2324
1749979315.2222877,2310
1749979315.2223577,2103
1749979315.246192,1794
1749979315.28368,1492
1749979315.2847352,1263
1749979315.2851222,1149
1749979315.285244,1267
1749979315.2853155,1620
1749979315.2853851,2027
1749979315.285451,2278
1749979315.285849,2319
1749979315.2859242,2152
1749979315.2861295,1856
1749979315.2862806,1537
1749979315.2876782,1288
1749979315.2891479,1147
1749979315.2892275,1230
1749979315.2892945,1562
1749979315.2895994,1985
1749979315.2898157,2269
1749979315.2898867,2340
1749979315.2899916,2200
1749979315.2901027,1920
1749979315.2902117,1601
1749979315.2903175,1342
1749979315.2904258,1176
1749979315.290533,1212
1749979315.2908018,1506
1749979315.2909338,1937
1749979315.2910256,2259
1749979315.2910998,2369
1749979315.2911673,2260
1749979315.291236,1996
1749979315.2913024,1674
1749979315.291372,1405
1749979315.2914398,1220
1749979315.2915077,1209
1749979315.2915745,1450
1749979315.2916455,1860
1749979315.291713,2206
1749979315.2917945,2358
1749979315.2918613,2295
1749979315.291928,2058
1749979315.2919967,1737
1749979315.2920632,1449
1749979315.29213,1242
1749979315.2922027,1193
1749979315.2922695,1397
1749979315.292336,1799
1749979315.2924044,2173
1749979315.2924726,2357
1749979315.2925315,2323
1749979315.2925944,2104
1749979315.292663,1788
1749979315.2927291,1487
1749979315.2927973,1262
1749979315.2980924,1172
1749979315.300232,1336
1749979315.3003666,1735
1749979315.3004365,2157
1749979315.3005,2391
1749979315.3015723,2392
1749979315.3016422,2188
1749979315.3018684,1875
1749979315.3019366,1567
1749979315.3140407,1329
1749979315.3378422,1198
1749979315.337937,1299
1749979315.3380167,1653
1749979315.3381352,2085
1749979315.3382206,2358
1749979315.3382943,2406
1749979315.3383672,2239
1749979315.3384528,1947
1749979315.3387551,1631
1749979315.3388321,1375
1749979315.3389077,1207
1749979315.3399243,1255
1749979315.3400192,1571
1749979315.3400972,2012
1749979315.340171,2324
1749979315.340248,2411
1749979315.3403313,2275
1749979315.3404028,1995
1749979315.340474,1678
1749979315.3405373,1421
1749979315.3406053,1243
1749979315.3406825,1241
1749979315.3407617,1490
1749979315.3408396,1894
1749979315.340913,2221
1749979315.340986,2353
1749979315.3410602,2272
1749979315.3411415,2022
1749979315.3412187,1697
1749979315.3412924,1414
1749979315.3414478,1220
1749979315.3416452,1204
1749979315.3417213,1449
1749979315.3418095,1874
1749979315.3418775,2235
1749979315.386057,2386
1749979315.4066978,2317
1749979315.450705,2081
1749979315.4528031,1771
1749979315.45379,1490
1749979315.4555488,1276
1749979315.455676,1194
1749979315.4557798,1367
1749979315.4558837,1767
1749979315.4559867,2167
1749979315.456089,2373
1749979315.4561915,2349
1749979315.4562938,2137
1749979315.4563959,1834
1749979315.456498,1547
1749979315.4566,1323
1749979315.4567013,1206
1749979315.4568207,1328
1749979315.4569228,1696
1749979315.457025,2115
1749979315.4571266,2361
1749979315.4572299,2376
1749979315.4574296,2184
1749979315.4575415,1882
1749979315.457645,1581
1749979315.4577472,1351
1749979315.4578495,1215
1749979315.4579518,1290
1749979315.458054,1609
1749979315.4581823,2020
1749979315.4582856,2296
1749979315.4583876,2361
1749979315.458502,2210
1749979315.4586043,1917
1749979315.4587061,1590
1749979315.4588132,1332
1749979315.4589145,1175
1749979315.4590158,1225
1749979315.4591172,1527
1749979315.459219,1953
1749979315.4593234,2263
1749979315.4594247,2363
1749979315.4595258,2247
1749979315.4596276,1979
1749979315.459729,1658
1749979315.4598303,1394
1749979315.4599314,1215
1749979315.4600322,1208
1749979315.460133,1451
1749979315.4602344,1860
1749979315.4603357,2200
1749979315.4604366,2344
1749979315.4605381,2271
1749979315.4606879,2026
1749979315.4608028,1704
1749979315.4609044,1423
1749979315.4616275,1224
1749979315.4622939,1184
1749979315.462496,1402
1749979315.4626036,1819
1749979315.46272,2201
1749979315.4628222,2378
1749979315.4629247,2329
1749979315.4630263,2098
1749979315.4631283,1783
1749979315.4632304,1494
1749979315.463332,1271
1749979315.4634337,1174
1749979315.4635355,1324
1749979315.463638,1710
1749979315.4637399,2117
1749979315.4638417,2339
1749979315.4639432,2334
1749979315.4640455,2133
1749979315.464148,1834
1749979315.4642494,1541
1749979315.4643514,1311
1749979315.4644532,1182
1749979315.4645548,1287
1749979315.464662,1644
1749979315.4647644,2070
1749979315.4648666,2329
1749979315.4649677,2360
1749979315.4650695,2183
1749979315.470441,1890
1749979315.6137915,1584
1749979315.6300411,1341
1749979315.6301174,1185
1749979315.630189,1242
1749979315.6302574,1561
1749979315.630327,1994
1749979315.6303957,2295
1749979315.6304636,2375
1749979315.6305325,2237
1749979315.6306007,1960
1749979315.6306684,1646
1749979315.6307354,1388
1749979315.630804,1211
1749979315.630871,1226
1749979315.63094,1506
1749979315.631006,1937
1749979315.6310742,2266
1749979315.6311405,2376
1749979315.6312065,2265
1749979315.6312735,2003
1749979315.631339,1692
1749979315.6314056,1428
1749979315.6314743,1233
1749979315.6315417,1199
1749979315.631608,1427
1749979315.6316764,1846
1749979315.6317425,2212
1749979315.631816,2370
1749979315.6318824,2299
1749979315.631954,2056
1749979315.6320202,1740
1749979315.632086,1459
1749979315.6321533,1248
1749979315.632222,1174
1749979315.6322877,1355
1749979315.6323545,1754
1749979315.632423,2144
1749979315.632487,2339
1749979315.6325467,2311
1749979315.633066,2098
1749979315.6387851,1794
1749979315.6433103,1504
1749979315.6433854,1278
1749979315.6434548,1165
1749979315.6435206,1296
1749979315.6435933,1669
1749979315.6436617,2083
1749979315.6437287,2320
1749979315.6437957,2330
1749979315.6438622,2139
1749979315.6439292,1843
1749979315.6439967,1548
1749979315.6444404,1317
1749979315.67184,1180
1749979315.709414,1265
1749979315.719806,1602
1749979315.7212403,2028
1749979315.7216494,2303
1749979315.7217162,2353
1749979315.7217977,2190
1749979315.7247076,1907
1749979315.7247884,1604
1749979315.7248597,1360
1749979315.72493,1193
1749979315.7249963,1225
1749979315.7250626,1521
1749979315.7251477,1954
1749979315.725214,2267
1749979315.7314732,2355
1749979315.7315543,2219
1749979315.7316244,1947
1749979315.7316947,1641
1749979315.7317643,1388
1749979315.7319553,1202
1749979315.7320333,1191
1749979315.7321112,1449
1749979315.7321777,1888
1749979315.732246,2246
1749979315.7323132,2380
1749979315.7323813,2280
1749979315.7324471,2019
1749979315.7325072,1702
1749979315.7326744,1431
1749979315.7327435,1229
1749979315.7328103,1177
1749979315.7328765,1384
1749979315.7329695,1798
1749979315.7330432,2177
1749979315.733109,2353
1749979315.7331817,2302
1749979315.733247,2071
1749979315.7333136,1757
1749979315.7333791,1471
1749979315.7334454,1255
1749979315.7335114,1167
1749979315.733578,1323
1749979315.7336438,1699
1749979315.7337093,2087
1749979315.7337713,2298
1749979315.7340477,2296
1749979315.7342026,2101
1749979315.7343452,1794
1749979315.7344913,1488
1749979315.735028,1256
1749979315.736969,1150
1749979315.7370481,1289
1749979315.7371202,1666
1749979315.7371924,2085
1749979315.7372644,2327
1749979315.7411711,2348
1749979315.74203,2171
1749979315.7421799,1884
1749979315.742327,1585
1749979315.74248,1347
1749979315.7426271,1199
1749979315.7427728,1266
1749979315.7431388,1592
1749979315.7432842,2020
1749979315.7434654,2308
1749979315.7436116,2377
1749979315.7442083,2233
1749979315.7443547,1959
1749979315.745143,1653
1749979315.7455268,1400
1749979315.7458658,1225
1749979315.7459357,1244
1749979315.746007,1527
1749979315.7460768,1955
1749979315.7461472,2273
1749979315.7462182,2370
1749979315.74629,2250
1749979315.7463608,1987
1749979315.7464309,1677
1749979315.746502,1414
1749979315.7465713,1218
1749979315.7466412,1188
1749979315.7467108,1423
1749979315.7467825,1847
1749979315.746854,2207
1749979315.7469184,2355
1749979315.7469895,2274
1749979315.7470572,2029
1749979315.7471263,1721
1749979315.7471955,1456
1749979315.7472625,1258
1749979315.7473323,1197
1749979315.747402,1386
1749979315.7474716,1789
1749979315.7665462,2175
1749979315.7965143,2365
1749979315.7988458,2328
1749979315.7989182,2106
1749979315.798988,1798
1749979315.799055,1513
1749979315.7991223,1294
1749979315.79919,1192
1749979315.799257,1330
1749979315.8008282,1704
1749979315.8008974,2108
1749979315.8009639,2333
1749979315.8010325,2335
1749979315.8011472,2141
1749979315.8012166,1845
1749979315.801283,1555
1749979315.8013518,1329
1749979315.8014197,1199
1749979315.8014863,1292
1749979315.8015535,1638
1749979315.8016202,2063
1749979315.8016887,2332
1749979315.8017547,2377
1749979315.8018317,2210
1749979315.8018959,1924
1749979315.801962,1624
1749979315.8020296,1386
1749979315.8020961,1231
1749979315.8026044,1278
1749979315.802676,1585
1749979315.802743,2017
1749979315.8028102,2321
1749979315.8062813,2401
1749979315.8063529,2261
1749979315.8064206,1988
1749979315.806511,1683
1749979315.806586,1435
1749979315.8097444,1254
1749979315.8099241,1248
1749979315.8099933,1506
1749979315.8100579,1933
1749979315.8101237,2275
1749979315.8104491,2397
1749979315.8105152,2291
1749979315.8105817,2031
1749979315.8106465,1722
1749979315.8107116,1461
1749979315.810788,1267
1749979315.810853,1223
1749979315.8109186,1436
1749979315.8109837,1849
1749979315.8110504,2219
1749979315.811116,2383
1749979315.8111813,2320
1749979315.8112462,2084
1749979315.8113127,1774
1749979315.8113785,1495
1749979315.811444,1284
1749979315.8115082,1204
1749979315.811573,1377
1749979315.811638,1776
1749979315.8117032,2174
1749979315.8118107,2377
1749979315.8152604,2354
1749979315.815333,2144
1749979315.815404,1844
1749979315.815475,1558
1749979315.815545,1335
1749979315.8156164,1218
1749979315.8156872,1335
1749979315.8157573,1696
1749979315.8158271,2109
1749979315.8158977,2353
1749979315.8159676,2373
1749979315.8160372,2188
1749979315.8161075,1890
1749979315.8161774,1586
1749979315.8419213,1349
1749979315.8524024,1210
1749979315.8524776,1289
1749979315.8525376,1622
1749979315.8526318,2049
1749979315.852698,2328
1749979315.8527632,2383
1749979315.852829,2225
1749979315.8528936,1942
1749979315.8529587,1633
1749979315.8530238,1385
1749979315.8530881,1218
1749979315.8531525,1247
1749979315.8532171,1538
1749979315.8532815,1970
1749979315.8533459,2293
1749979315.853412,2400
1749979315.8534763,2287
1749979315.8535407,2025
1749979315.8536046,1712
1749979315.8536694,1447
1749979315.8537343,1257
1749979315.8537934,1242
1749979315.853855,1490
1749979315.8539195,1911
1749979315.8539832,2255
1749979315.8540478,2387
1749979315.8541121,2302
1749979315.8541763,2061
1749979315.8542407,1754
1749979315.8543053,1480
1749979315.854369,1269
1749979315.8544333,1206
1749979315.8544974,1408
1749979315.8545618,1823
1749979315.8546257,2208
1749979315.85469,2385
1749979315.8547542,2334
1749979315.8548183,2106
1749979315.854882,1801
1749979315.8549461,1520
1749979315.8550098,1302
1749979315.855074,1202
1749979315.8551497,1349
1749979315.8552146,1735
1749979315.8552785,2145
1749979315.855342,2369
1749979315.855406,2364
1749979315.8554711,2162
1749979315.855535,1863
1749979315.8555992,1574
1749979315.855664,1349
1749979315.8557289,1222
1749979315.8557942,1322
1749979315.8560307,1670
1749979315.8560948,2091
1749979315.8561604,2351
1749979315.8562276,2388
1749979315.8562922,2214
1749979315.8563597,1923
1749979315.8564253,1618
1749979315.8564866,1377
1749979315.8565478,1222
1749979315.8566172,1277
1749979315.8566823,1592
1749979315.856747,2023
1749979315.856815,2322
1749979315.8568833,2397
1749979315.8569512,2253
1749979315.8570192,1976
1749979315.8570871,1667
1749979315.8571553,1414
1749979315.8572276,1236
1749979315.912491,1240
1749979315.9127386,1509
1749979315.913322,1938
1749979315.9133902,2274
1749979315.9134548,2392
1749979315.9135206,2285
1749979315.9135878,2027
1749979315.913653,1718
1749979315.9137368,1457
1749979315.9137964,1263
1749979315.9260256,1226
1749979315.926104,1450
1749979315.926176,1868
1749979315.9262476,2237
1749979315.926319,2397
1749979315.9263895,2328
1749979315.9264596,2088
1749979315.9265304,1778
1749979315.926601,1505
1749979315.9266713,1299
1749979315.926747,1224
1749979315.9268174,1397
1749979315.9268875,1790
1749979315.9269574,2181
1749979315.9270272,2380
1749979315.9270973,2351
1749979315.9271672,2133
1749979315.927237,1822
1749979315.927307,1531
1749979315.927377,1310
1749979315.927447,1204
1749979315.9275172,1336
1749979315.9275873,1707
1749979315.9276574,2119
1749979315.9277282,2356
1749979315.927798,2366
1749979315.9278681,2174
1749979315.9279377,1871
1749979315.9280071,1565
1749979315.9280763,1325
1749979315.9281461,1183
1749979315.928216,1267
1749979315.9282856,1607
1749979315.928355,2036
1749979315.928425,2313
1749979315.9285064,2366
1749979315.9286451,2207
1749979315.9287257,1923
1749979315.9287913,1615
1749979315.9288561,1366
1749979315.9289203,1201
1749979315.9289846,1238
1749979315.9290488,1538
1749979315.9291131,1969
1749979315.929179,2282
1749979315.9292433,2374
1749979315.9293084,2249
1749979315.9293737,1982
1749979315.9294388,1673
1749979315.9302087,1415
1749979315.9302819,1229
1749979315.930352,1219
1749979315.9304216,1476
1749979315.9304914,1908
1749979315.9305608,2263
1749979315.9306297,2402
1749979315.9307072,2313
1749979315.9328618,2061
1749979315.9329398,1748
1749979315.9330142,1478
1749979315.9330888,1278
1749979315.9331632,1225
1749979315.9332366,1426
1749979315.9333103,1829
1749979315.9333842,2200
1749979315.9334579,2373
1749979315.933532,2323
1749979315.9336054,2095
1749979315.9336789,1786
1749979315.9337525,1504
1749979315.9338255,1288
1749979315.9338837,1197
1749979315.9339504,1357
1749979315.934024,1747
1749979315.9340973,2150
1749979315.9341707,2363
1749979315.9342444,2350
1749979315.9343176,2147
1749979315.9343913,1851
1749979315.9344645,1564
1749979315.9345374,1338
1749979315.9346168,1211
1749979315.9346902,1321
1749979315.9347634,1687
1749979315.9348364,2118
1749979315.9349096,2371
1749979315.9583342,2387
1749979315.9751866,2197
1749979316.0098526,1904
1749979316.0328765,1611
1749979316.0342152,1377
1749979316.0432205,1219
1749979316.0433178,1265
1749979316.0434005,1576
1749979316.043521,2007
1749979316.0436025,2303
1749979316.0454397,2372
1749979316.0455258,2222
1749979316.0456064,1943
1749979316.0672216,1638
1749979316.0677242,1391
1749979316.067806,1215
1749979316.0679665,1224
1749979316.0680454,1497
1749979316.0819397,1925
1749979316.0820205,2253
1749979316.082103,2360
1749979316.0821743,2242
1749979316.0822453,1977
1749979316.0823166,1667
1749979316.082387,1408
1749979316.0824578,1221
1749979316.0825284,1195
1749979316.082599,1431
1749979316.08267,1853
1749979316.082741,2213
1749979316.0828116,2362
1749979316.0828817,2283
1749979316.0829527,2037
1749979316.0830233,1722
1749979316.0830932,1446
1749979316.0831637,1241
1749979316.0832336,1177
1749979316.0833046,1368
1749979316.0833752,1775
1749979316.0834458,2168
1749979316.0835164,2363
1749979316.0835872,2331
1749979316.0836577,2111
1749979316.083728,1801
1749979316.083799,1509
1749979316.0838697,1284
1749979316.0839396,1178
1749979316.0840096,1318
1749979316.0840905,1697
1749979316.0841553,2111
1749979316.0842202,2343
1749979316.084285,2348
1749979316.0843513,2152
1749979316.084417,1852
1749979316.0844793,1553
1749979316.0845387,1320
1749979316.084607,1186
1749979316.0846736,1279
1749979316.084738,1625
1749979316.0848033,2052
1749979316.0848682,2323
1749979316.0849326,2367
1749979316.084998,2200
1749979316.0850632,1912
1749979316.08514,1604
1749979316.0933673,1358
1749979316.1552207,1197
1749979316.2187796,1242
1749979316.2644985,1549
1749979316.272429,1981
1749979316.272518,2287
1749979316.2725935,2369
1749979316.2726536,2233
1749979316.272726,1958
1749979316.2728038,1645
1749979316.2728848,1386
1749979316.2729497,1203
1749979316.2730153,1204
1749979316.27308,1471
1749979316.2731445,1905
1749979316.27321,2248
1749979316.2732751,2373
1749979316.2733402,2274
1749979316.273449,2022
1749979316.2735152,1712
1749979316.2735803,1443
1749979316.2736459,1240
1749979316.2737105,1192
1749979316.2737713,1408
1749979316.2738302,1828
1749979316.273894,2205
1749979316.2739594,2373
1749979316.2740245,2313
1749979316.274089,2080
1749979316.2741542,1773
1749979316.2742186,1496
1749979316.2742834,1283
1749979316.2743485,1195
1749979316.2744133,1358
1749979316.2744782,1751
1749979316.2745428,2150
1749979316.2746074,2357
1749979316.2746735,2338
1749979316.2747386,2130
1749979316.275075,1832
1749979316.2751875,1548
1749979316.2758973,1327
1749979316.275979,1207
1749979316.2760482,1322
1749979316.276145,1684
1749979316.276296,2102
1749979316.2775896,2347
1749979316.2778237,2365
1749979316.2780674,2180
1749979316.2782946,1888
1749979316.2786055,1594
1749979316.278817,1359
1749979316.2832625,1210
1749979316.2833717,1275
1749979316.2834976,1600
1749979316.2835872,2029
1749979316.2836733,2312
1749979316.283758,2367
1749979316.2838662,2210
1749979316.2839594,1933
1749979316.2840428,1636
1749979316.2841263,1395
1749979316.284213,1223
1749979316.2842982,1240
1749979316.2843874,1524
1749979316.284476,1958
1749979316.2846794,2282
1749979316.2847714,2378
1749979316.2848692,2248
1749979316.2849631,1976
1749979316.2875428,1666
1749979316.2876287,1411
1749979316.2877128,1225
1749979316.287796,1202
1749979316.2878985,1442
1749979316.2879827,1865
1749979316.288066,2222
1749979316.2881484,2364
1749979316.2882318,2279
1749979316.2883396,2028
1749979316.2884226,1714
1749979316.2885048,1442
1749979316.2888472,1239
1749979316.2889328,1174
1749979316.289018,1357
1749979316.28996,1745
1749979316.2900338,2117
1749979316.3378892,2302
1749979316.3669748,2269
1749979316.3680487,2051
1749979316.3681188,1738
1749979316.3681853,1441
1749979316.3682523,1218
1749979316.3820522,1130
1749979316.3821242,1297
1749979316.3821898,1698
1749979316.3822706,2114
1749979316.423989,2336
1749979316.441843,2326
1749979316.4419215,2123
1749979316.4419925,1824
1749979316.4420614,1533
1749979316.4421303,1303
1749979316.4421995,1169
1749979316.4422681,1263
1749979316.4636478,1611
1749979316.463756,2039
1749979316.463859,2308
1749979316.4639614,2350
1749979316.4640634,2179
1749979316.464165,1889
1749979316.4648123,1586
1749979316.4649189,1347
1749979316.4650211,1191
1749979316.4651399,1236
1749979316.4652426,1534
1749979316.465345,1950
1749979316.4654472,2246
1749979316.4655633,2332
1749979316.465665,2203
1749979316.4657674,1929
1749979316.46587,1609
1749979316.465972,1343
1749979316.4660735,1168
1749979316.4661758,1194
1749979316.4662774,1488
1749979316.4663801,1931
1749979316.466482,2266
1749979316.4665837,2378
1749979316.466686,2266
1749979316.4667873,2004
1749979316.4668777,1688
1749979316.4669516,1419
1749979316.4670255,1221
1749979316.4670992,1186
1749979316.4671724,1414
1749979316.4672453,1836
1749979316.4673183,2207
1749979316.4673915,2371
1749979316.4674647,2310
1749979316.4675379,2074
1749979316.467611,1758
1749979316.4676838,1469
1749979316.467757,1249
1749979316.4678302,1171
1749979316.4679039,1352
1749979316.4679775,1755
1749979316.4680512,2156
1749979316.468125,2363
1749979316.468198,2342
1749979316.468271,2128
1749979316.4683442,1814
1749979316.468418,1515
1749979316.5326438,1287
1749979316.557566,1176
1749979316.5576553,1301
1749979316.5577357,1657
1749979316.557813,2056
1749979316.557873,2289
1749979316.5592625,2310
1749979316.5595038,2130
1749979316.5595818,1831
1749979316.5596604,1520
1749979316.5597394,1278
1749979316.5598173,1148
1749979316.5599012,1255
1749979316.5601819,1618
1749979316.5603101,2061
1749979316.5603895,2339
1749979316.5604675,2385
1749979316.5605404,2218
1749979316.5606012,1929
1749979316.5606797,1619
1749979316.5607574,1367
1749979316.5608354,1196
1749979316.560913,1228
1749979316.5609906,1531
1749979316.5610683,1975
1749979316.5611477,2302
1749979316.561226,2401
1749979316.561304,2270
1749979316.5613773,1993
1749979316.5614533,1675
1749979316.5615304,1410
1749979316.5616074,1218
1749979316.5616841,1201
1749979316.5617604,1451
1749979316.5618434,1883
1749979316.5619035,2240
1749979316.5619802,2378
1749979316.562057,2284
1749979316.5621333,2025
1749979316.5622098,1706
1749979316.5622864,1431
1749979316.5623639,1226
1749979316.5624404,1171
1749979316.562517,1376
1749979316.5625935,1791
1749979316.5626695,2176
1749979316.5627463,2355
1749979316.5628223,2303
1749979316.5628989,2067
1749979316.5629752,1751
1749979316.563052,1467
1749979316.5631282,1257
1749979316.5632055,1172
1749979316.5632827,1325
1749979316.5633595,1696
1749979316.5634356,2082
1749979316.563512,2294
1749979316.5635886,2294
1749979316.563665,2096
1749979316.5637414,1785
1749979316.5638182,1472
1749979316.5638945,1234
1749979316.5639713,1122
1749979316.564048,1258
1749979316.5641246,1640
1749979316.564201,2071
1749979316.5642772,2322
1749979316.5643537,2344
1749979316.56443,2161
1749979316.564506,1865
1749979316.56457,1558
1749979316.5646393,1311
1749979316.5647168,1152
1749979316.5647948,1209
1749979316.5648713,1531
1749979316.564948,1967
1749979316.5650249,2267
1749979316.5651314,2340
1749979316.6432047,2191
1749979316.6770532,1909
1749979316.6942756,1599
1749979316.706171,1346
1749979316.708283,1170
1749979316.738902,1183
1749979316.7391639,1464
1749979316.7392302,1903
1749979316.7394154,2242
1749979316.739527,2357
1749979316.739595,2244
1749979316.7396612,1977
1749979316.7397265,1662
1749979316.7398148,1399
1749979316.7398813,1205
1749979316.7399483,1174
1749979316.7400153,1407
1749979316.7521048,1833
1749979316.763701,2200
1749979316.7637818,2354
1749979316.7638564,2277
1749979316.7643466,2030
1749979316.7644608,1717
1749979316.7645342,1444
1749979316.764595,1238
1749979316.7646616,1170
1749979316.764733,1358
1749979316.7648044,1766
1749979316.764875,2161
1749979316.7649462,2356
1749979316.7650177,2320
1749979316.7650907,2097
1749979316.7652996,1787
1749979316.7679648,1497
1749979316.7691205,1273
1749979316.7763581,1169
1749979316.8036737,1316
1749979316.8037865,1710
1749979316.8038619,2134
1749979316.804322,2365
1749979316.8046167,2360
1749979316.8048134,2156
1749979316.8053348,1857
1749979316.8085158,1564
1749979316.8086097,1328
1749979316.8086874,1183
1749979316.8087628,1268
1749979316.8088398,1619
1749979316.8096414,2059
1749979316.8098655,2336
1749979316.809944,2373
1749979316.8100214,2196
1749979316.8100996,1908
1749979316.8101773,1610
1749979316.8102522,1368
1749979316.8103273,1198
1749979316.8104026,1233
1749979316.8104775,1543
1749979316.810554,1994
1749979316.810629,2318
1749979316.8107038,2403
1749979316.8108075,2257
1749979316.8108835,1976
1749979316.8109586,1667
1749979316.8110335,1415
1749979316.811108,1226
1749979316.811184,1209
1749979316.811286,1463
1749979316.811361,1897
1749979316.8114355,2250
1749979316.8115098,2379
1749979316.8115864,2271
1749979316.811684,2006
1749979316.811759,1693
1749979316.811844,1432
1749979316.8119192,1240
1749979316.8119943,1198
1749979316.812069,1414
1749979316.8121672,1830
1749979316.8122416,2202
1749979316.8123167,2362
1749979316.8123918,2291
1749979316.8124666,2047
1749979316.8125575,1733
1749979316.8126323,1452
1749979316.8126998,1235
1749979316.8127742,1148
1749979316.8128479,1317
1749979316.8129215,1719
1749979316.8130255,2130
1749979316.8131003,2345
1749979316.8131742,2327
1749979316.8132482,2112
1749979316.8133223,1803
1749979316.8150003,1509
1749979316.84143,1284
1749979316.897319,1171
1749979316.8995466,1298
1749979316.9003248,1672
1749979316.9005427,2096
1749979316.9011552,2343
1749979316.9044428,2361
1749979316.9046936,2172
1749979316.9049337,1876
1749979316.907749,1577
1749979316.9083655,1343
1749979316.9087105,1200
1749979316.9089508,1273
1749979316.9091115,1602
1749979316.9092681,2031
1749979316.9094262,2316
1749979316.9198458,2373
1749979316.9199567,2213
1749979316.9200594,1925
1749979316.920162,1612
1749979316.9202642,1360
1749979316.9203668,1192
1749979316.9204679,1223
1749979316.920657,1518
1749979316.92076,1956
1749979316.9291363,2281
1749979316.9299521,2384
1749979316.9300258,2263
1749979316.9300969,1996
1749979316.930168,1681
1749979316.9302385,1415
1749979316.930309,1221
1749979316.9303799,1201
1749979316.9305644,1448
1749979316.9307654,1877
1749979316.9308367,2234
1749979316.9309077,2375
1749979316.9309785,2290
1749979316.931049,2043
1749979316.93112,1732
1749979316.9311903,1459
1749979316.931275,1253
1749979316.9313464,1194
1749979316.9314225,1394
1749979316.931497,1806
1749979316.9315746,2191
1749979316.931649,2370
1749979317.000333,2320
1749979317.0214603,2088
1749979317.0236654,1775
1749979317.023747,1488
1749979317.0238338,1270
1749979317.0421565,1177
1749979317.042239,1332
1749979317.0423172,1722
1749979317.0423942,2135
1749979317.0424716,2360
1749979317.0425491,2356
1749979317.0426261,2152
1749979317.0427034,1846
1749979317.04278,1545
1749979317.042857,1309
1749979317.0429344,1176
1749979317.0430117,1280
1749979317.0430887,1640
1749979317.043166,2073
1749979317.0432432,2340
1749979317.0433211,2375
1749979317.0433981,2198
1749979317.0434754,1907
1749979317.0435524,1606
1749979317.0436296,1367
1749979317.0437067,1210
1749979317.0437834,1262
1749979317.04386,1576
1749979317.0439372,2008
1749979317.0456214,2306
1749979317.045708,2378
1749979317.0457861,2230
1749979317.0458643,1951
1749979317.0459414,1640
1749979317.0460186,1384
1749979317.0460956,1201
1749979317.046173,1208
1749979317.0462503,1486
1749979317.0463274,1928
1749979317.046404,2272
1749979317.046481,2389
1749979317.0465586,2276
1749979317.0466363,2011
1749979317.046713,1697
1749979317.0467904,1429
1749979317.0468674,1230
1749979317.046944,1192
1749979317.0470216,1420
1749979317.0470986,1845
1749979317.0471761,2216
1749979317.0472562,2372
1749979317.0473335,2297
1749979317.0474107,2054
1749979317.0474877,1744
1749979317.047565,1470
1749979317.0476422,1260
1749979317.0477188,1182
1749979317.0477958,1360
1749979317.0478773,1765
1749979317.0479553,2167
1749979317.0480328,2371
1749979317.04811,2343
1749979317.048188,2122
1749979317.0482798,1812
1749979317.0483615,1521
1749979317.0567834,1298
1749979317.0568867,1189
1749979317.0569677,1322
1749979317.0570474,1696
1749979317.057126,2112
1749979317.0572052,2350
1749979317.057284,2361
1749979317.0573635,2170
1749979317.057443,1874
1749979317.0575209,1576
1749979317.057599,1338
1749979317.0576768,1195
1749979317.0577555,1277
1749979317.0578246,1616
1749979317.0578825,2045
1749979317.0579605,2322
1749979317.058038,2373
1749979317.0581155,2211
1749979317.0581934,1927
1749979317.0582716,1623
1749979317.05835,1378
1749979317.058428,1212
1749979317.0585272,1245
1749979317.058606,1543
1749979317.0586853,1977
1749979317.058763,2296
1749979317.0588412,2392
1749979317.0589201,2262
1749979317.0589988,1985
1749979317.059077,1666
1749979317.0591555,1404
1749979317.059234,1221
1749979317.0593126,1217
1749979317.0593839,1474
1749979317.0594485,1898
1749979317.0595143,2239
1749979317.059588,2367
1749979317.0596662,2273
1749979317.059744,2019
1749979317.0598214,1703
1749979317.0598981,1427
1749979317.0599756,1219
1749979317.0600536,1166
1749979317.060131,1377
1749979317.060208,1796
1749979317.0602853,2176
1749979317.060363,2348
1749979317.0604405,2292
1749979317.0605159,2062
1749979317.0605743,1756
1749979317.060651,1476
1749979317.063883,1258
1749979317.0639715,1165
1749979317.0640533,1326
1749979317.0641332,1725
1749979317.0642128,2137
1749979317.064293,2353
1749979317.064377,2333
1749979317.0644588,2117
1749979317.0645354,1811
1749979317.064594,1523
1749979317.0646706,1299
1749979317.0647488,1174
1749979317.0648284,1281
1749979317.0649064,1637
1749979317.0649865,2060
1749979317.0650644,2316
1749979317.0651646,2344
1749979317.0652473,2163
1749979317.0653248,1869
1749979317.065404,1570
1749979317.065482,1334
1749979317.0655596,1184
1749979317.0656407,1242
1749979317.0657237,1559
1749979317.0658062,1984
1749979317.0658736,2273
1749979317.0659351,2340
1749979317.0660126,2190
1749979317.0660906,1912
1749979317.0661707,1609
1749979317.0662491,1365
1749979317.0663266,1197
1749979317.0664072,1216
1749979317.0900087,1496
1749979317.1215694,1926
1749979317.1343656,2254
1749979317.1346326,2362
1749979317.1347122,2244
1749979317.134788,1976
1749979317.134943,1664
1749979317.1350226,1406
1749979317.1351159,1221
1749979317.1351876,1197
1749979317.135259,1431
1749979317.1353302,1851
1749979317.1353993,2210
1749979317.13547,2359
1749979317.1355379,2280
1749979317.135607,2033
1749979317.1372151,1722
1749979317.1373324,1451
1749979317.1374407,1246
1749979317.137563,1177
1749979317.1376724,1361
1749979317.1377802,1761
1749979317.1381092,2150
1749979317.1382143,2342
1749979317.138325,2306
1749979317.1384268,2085
1749979317.1385467,1778
1749979317.13865,1495
1749979317.138754,1276
1749979317.1388564,1171
1749979317.1389587,1307
1749979317.1390603,1681
1749979317.1391616,2089
1749979317.1392643,2319
1749979317.1393692,2322
1749979317.1401565,2123
1749979317.1402607,1820
1749979317.1403627,1522
1749979317.140464,1293
1749979317.1406503,1166
1749979317.1407523,1265
1749979317.1408536,1613
1749979317.1461449,2035
1749979317.1462595,2301
1749979317.1559622,2345
1749979317.1560817,2180
1749979317.2332706,1895
1749979317.255437,1588
1749979317.2963185,1338
1749979317.30367,1171
1749979317.3037453,1213
1749979317.30598,1519
1749979317.3152747,1952
1749979317.3348355,2258
1749979317.339081,2343
1749979317.3392205,2211
1749979317.339289,1941
1749979317.339357,1632
1749979317.339423,1376
1749979317.3395357,1193
1749979317.3396044,1194
1749979317.3396695,1460
1749979317.3397355,1893
1749979317.3398004,2239
1749979317.3398662,2370
1749979317.3399324,2274
1749979317.3399978,2018
1749979317.3400633,1703
1749979317.3401356,1434
1749979317.3402035,1240
1749979317.34027,1204
1749979317.3403354,1425
1749979317.340401,1842
1749979317.3404627,2213
1749979317.3406696,2378
1749979317.3407526,2316
1749979317.340819,2079
1749979317.3408852,1764
1749979317.3409512,1481
1749979317.3410199,1268
1749979317.3410876,1190
1749979317.341155,1363
1749979317.341223,1759
1749979317.3412895,2157
1749979317.341356,2363
1749979317.3414233,2340
1749979317.341489,2124
1749979317.3415577,1814
1749979317.3416243,1518
1749979317.3416944,1288
1749979317.3417637,1170
1749979317.3684313,1292
1749979317.379319,1665
1749979317.3794262,2094
1749979317.3795297,2348
1749979317.3796315,2367
1749979317.3802078,2176
1749979317.3803139,1875
1749979317.380417,1573
1749979317.3805187,1336
1749979317.3825104,1187
1749979317.3825867,1258
1749979317.382659,1589
1749979317.382731,2022
1749979317.3828022,2307
1749979317.3828733,2363
1749979317.382944,2201
1749979317.3830152,1916
1749979317.3830855,1611
1749979317.3831563,1366
1749979317.3832273,1194
1749979317.3832996,1215
1749979317.383371,1504
1749979317.383442,1942
1749979317.3835123,2270
1749979317.383583,2375
1749979317.3836536,2252
1749979317.3837235,1983
1749979317.383801,1673
1749979317.3838716,1415
1749979317.383942,1228
1749979317.3840122,1210
1749979317.3840942,1457
1749979317.3841653,1887
1749979317.384236,2246
1749979317.3843067,2389
1749979317.3843768,2300
1749979317.3844473,2047
1749979317.3845155,1731
1749979317.3845794,1456
1749979317.3846493,1250
1749979317.3847196,1190
1749979317.3847902,1387
1749979317.3848603,1796
1749979317.3849301,2180
1749979317.3850002,2364
1749979317.385071,2319
1749979317.404684,2091
1749979317.4047942,1779
1749979317.4048975,1494
1749979317.4063923,1280
1749979317.407596,1191
1749979317.4077053,1345
1749979317.40781,1727
1749979317.4079142,2131
1749979317.4080184,2355
1749979317.4081216,2357
1749979317.408224,2161
1749979317.408327,1858
1749979317.4084296,1556
1749979317.4085488,1321
1749979317.4086516,1197
1749979317.4087536,1309
1749979317.4088564,1668
1749979317.4089582,2093
1749979317.4090598,2351
1749979317.4091618,2383
1749979317.4092634,2208
1749979317.409376,1917
1749979317.4094784,1613
1749979317.4095802,1371
1749979317.409682,1216
1749979317.4097836,1275
1749979317.4098852,1595
1749979317.4099872,2031
1749979317.4100893,2330
1749979317.4101903,2403
1749979317.4140012,2254
1749979317.4141073,1972
1749979317.4142106,1661
1749979317.414313,1408
1749979317.4144154,1232
1749979317.4145176,1244
1749979317.414621,1523
1749979317.4147234,1962
1749979317.4148254,2302
1749979317.4149272,2419
1749979317.4150295,2306
1749979317.4151473,2040
1749979317.4152606,1721
1749979317.4153633,1451
1749979317.4154658,1253
1749979317.4155684,1220
1749979317.415671,1452
1749979317.4157724,1877
1749979317.4158745,2246
1749979317.5181296,2403
1749979317.5545146,2330
1749979317.565834,2087
1749979317.5659113,1771
1749979317.5659838,1488
1749979317.5660546,1272
1749979317.566125,1196
1749979317.5661957,1380
1749979317.5662665,1787
1749979317.5663376,2186
1749979317.5664074,2387
1749979317.5664783,2357
1749979317.56655,2137
1749979317.5666327,1826
1749979317.5667036,1530
1749979317.5667744,1299
1749979317.5668461,1184
1749979317.5669181,1317
1749979317.5669897,1697
1749979317.5670617,2118
1749979317.5671334,2358
1749979317.5672052,2365
1749979317.5672777,2166
1749979317.5673492,1862
1749979317.5674207,1559
1749979317.5674922,1321
1749979317.5675645,1181
1749979317.5676363,1266
1749979317.5677156,1610
1749979317.5771413,2044
1749979317.5772634,2325
1749979317.577381,2379
1749979317.5774944,2216
1749979317.577612,1930
1749979317.606077,1622
1749979317.6288311,1371
1749979317.6289563,1201
1749979317.6291049,1236
1749979317.6292226,1542
1749979317.629325,1984
1749979317.6294267,2305
1749979317.6295447,2397
1749979317.6296463,2263
1749979317.629748,1990
1749979317.6299696,1680
1749979317.6300724,1423
1749979317.630175,1235
1749979317.630277,1222
1749979317.6303785,1476
1749979317.6304798,1908
1749979317.6305838,2264
1749979317.6306877,2403
1749979317.6307888,2309
1749979317.6319587,2050
1749979317.6320643,1731
1749979317.6321673,1458
1749979317.6322696,1258
1749979317.6323707,1211
1749979317.6324725,1423
1749979317.6326706,1839
1749979317.6327739,2219
1749979317.6415355,2395
1749979317.683334,2341
1749979317.704649,2105
1749979317.7047276,1787
1749979317.7047968,1498
1749979317.7057545,1282
1749979317.7176425,1198
1749979317.7177577,1364
1749979317.7182925,1758
1749979317.7185254,2162
1749979317.7186027,2377
1749979317.7186906,2365
1749979317.7187688,2157
1749979317.7188468,1850
1749979317.7189198,1553
1749979317.7196276,1323
1749979317.7197075,1201
1749979317.7197852,1316
1749979317.719862,1679
1749979317.7199392,2101
1749979317.7202291,2352
1749979317.7203686,2375
1749979317.7205138,2191
1749979317.720574,1894
1749979317.7206519,1592
1749979317.7207289,1353
1749979317.720806,1202
1749979317.7208827,1268
1749979317.7209613,1597
1749979317.7210386,2034
1749979317.721162,2330
1749979317.721243,2398
1749979317.725274,2245
1749979317.7253556,1959
1749979317.7254305,1645
1749979317.7255065,1389
1749979317.7255805,1214
1749979317.725657,1238
1749979317.7257342,1531
1749979317.725812,1973
1749979317.7258763,2302
1749979317.7259357,2407
1749979317.7260113,2288
1749979317.7260895,2026
1749979317.7261665,1720
1749979317.7262435,1458
1749979317.7263212,1260
1749979317.7264006,1225
1749979317.7264812,1456
1749979317.7265604,1877
1749979317.7266383,2237
1749979317.7267156,2385
1749979317.7267928,2305
1749979317.7268708,2058
1749979317.7269483,1743
1749979317.7270257,1467
1749979317.7271025,1263
1749979317.7271793,1204
1749979317.7272568,1398
1749979317.727333,1800
1749979317.72741,2181
1749979317.7274861,2366
1749979317.727563,2331
1749979317.72764,2115
1749979317.7277162,1810
1749979317.7277932,1525
1749979317.7278764,1309
1749979317.7279527,1211
1749979317.7280293,1349
1749979317.728107,1712
1749979317.7281837,2101
1749979317.7282603,2319
1749979317.7283366,2324
1749979317.7284133,2133
1749979317.7372012,1830
1749979317.747222,1524
1749979317.7473629,1289
1749979317.7505374,1170
1749979317.751714,1289
1749979317.7518501,1656
1749979317.7519217,2087
1749979317.7572985,2349
1749979317.757392,2383
1749979317.7574706,2208
1749979317.7575498,1918
1749979317.757628,1614
1749979317.757706,1370
1749979317.7577853,1209
1749979317.7578444,1252
1749979317.757918,1556
1749979317.7579958,1986
1749979317.7580736,2292
1749979317.7581508,2379
1749979317.7582283,2246
1749979317.758306,1973
1749979317.7583835,1661
1749979317.7585502,1405
1749979317.7586324,1225
1749979317.7587135,1227
1749979317.7588065,1492
1749979317.7588887,1922
1749979317.793111,2265
1749979317.8455365,2393
1749979317.946837,2296
1749979317.95072,2037
1749979317.971192,1717
1749979317.983996,1444
1749979317.9881234,1246
1749979317.9904644,1210
1749979317.99103,1436
1749979318.0166883,1856
1749979318.0376248,2224
1749979318.0377378,2385
1749979318.0379417,2318
1749979318.0380461,2077
1749979318.0381496,1760
1749979318.0382524,1476
1749979318.038355,1262
1749979318.038471,1185
1749979318.0385816,1364
1749979318.0386848,1766
1749979318.0387878,2165
1749979318.0388901,2368
1749979318.0490644,2343
1749979318.0539653,2130
1749979318.0540767,1824
1749979318.05418,1531
1749979318.054283,1302
1749979318.054389,1184
1749979318.0544934,1307
1749979318.054596,1678
1749979318.0546973,2097
1749979318.0547993,2343
1749979318.0549004,2359
1749979318.0550025,2171
1749979318.0551195,1872
1749979318.0552235,1569
1749979318.0554192,1332
1749979318.0555232,1193
1749979318.0556252,1278
1749979318.055727,1619
1749979318.0558293,2051
1749979318.0559335,2331
1749979318.056041,2386
1749979318.056145,2229
1749979318.0562663,1946
1749979318.0563684,1637
1749979318.0564697,1385
1749979318.0578,1214
1749979318.0753782,1247
1749979318.0755875,1547
1749979318.075681,1988
1749979318.0757916,2310
1749979318.0758908,2405
1749979318.075981,2274
1749979318.0760715,1999
1749979318.0761635,1682
1749979318.0762835,1418
1749979318.0786202,1227
1749979318.08005,1215
1749979318.0801504,1471
1749979318.0802329,1905
1749979318.0803158,2260
1749979318.0803993,2395
1749979318.080482,2304
1749979318.0823557,2054
1749979318.082442,1742
1749979318.0825214,1466
1749979318.0826,1256
1749979318.0826783,1195
1749979318.0827572,1401
1749979318.0828347,1820
1749979318.0829124,2207
1749979318.0829902,2386
1749979318.083068,2332
1749979318.0831451,2099
1749979318.0832229,1787
1749979318.0833004,1501
1749979318.0833774,1279
1749979318.0834553,1184
1749979318.0835328,1343
1749979318.0836112,1739
1749979318.0836887,2154
1749979318.0837705,2377
1749979318.083848,2368
1749979318.0839248,2161
1749979318.0840018,1855
1749979318.0840788,1556
1749979318.0841558,1319
1749979318.0842328,1187
1749979318.0849013,1292
1749979318.0849748,1654
1749979318.0850515,2086
1749979318.0852222,2349
1749979318.0853047,2381
1749979318.0853817,2202
1749979318.0854588,1908
1749979318.0855353,1604
1749979318.0927513,1360
1749979318.0928714,1204
1749979318.0929835,1266
1749979318.0930946,1593
1749979318.0932071,2035
1749979318.0933154,2335
1749979318.0934243,2405
1749979318.0935357,2254
1749979318.093691,1972
1749979318.093801,1661
1749979318.093863,1403
1749979318.0939376,1218
1749979318.094012,1225
1749979318.0940864,1507
1749979318.094161,1954
1749979318.094236,2301
1749979318.09431,2420
1749979318.0943844,2303
1749979318.094459,2034
1749979318.0945337,1719
1749979318.0946076,1457
1749979318.0946817,1263
1749979318.0947564,1230
1749979318.0948303,1461
1749979318.094905,1888
1749979318.094979,2259
1749979318.095054,2416
1749979318.0951383,2337
1749979318.0952137,2084
1749979318.0954905,1765
1749979318.0956798,1485
1749979318.0964267,1275
1749979318.097207,1204
1749979318.097378,1389
1749979318.0975387,1797
1749979318.0976496,2195
1749979318.0977554,2392
1749979318.0979877,2354
1749979318.098093,2127
1749979318.0981967,1814
1749979318.0983005,1523
1749979318.098404,1299
1749979318.098522,1192
1749979318.0986266,1331
1749979318.09873,1712
1749979318.0988204,2131
1749979318.0988915,2367
1749979318.0989618,2371
1749979318.0990326,2172
1749979318.0991035,1870
1749979318.0991797,1569
1749979318.0992513,1330
1749979318.0993223,1185
1749979318.0993936,1270
1749979318.0994644,1617
1749979318.0995445,2054
1749979318.0996156,2333
1749979318.0996866,2378
1749979318.099758,2206
1749979318.099829,1913
1749979318.0999002,1606
1749979318.099971,1362
1749979318.1000416,1200
1749979318.1001127,1241
1749979318.100184,1544
1749979318.1002548,1978
1749979318.1003256,2288
1749979318.1003969,2376
1749979318.100468,2240
1749979318.1026123,1964
1749979318.1026855,1649
1749979318.102757,1388
1749979318.1028278,1203
1749979318.1028993,1200
1749979318.10297,1464
1749979318.1030405,1899
1749979318.1031113,2249
1749979318.103182,2381
1749979318.1032526,2282
1749979318.1033242,2021
1749979318.1033957,1699
1749979318.103469,1423
1749979318.1035397,1221
1749979318.1036103,1178
1749979318.1036808,1398
1749979318.1037514,1819
1749979318.1038222,2196
1749979318.103893,2365
1749979318.1039634,2306
1749979318.1040342,2071
1749979318.104105,1758
1749979318.1041758,1471
1749979318.1042473,1249
1749979318.1043184,1161
1749979318.10439,1329
1749979318.1044602,1729
1749979318.1046498,2136
1749979318.1047223,2346
1749979318.1047933,2324
1749979318.1048648,2109
1749979318.1049364,1802
1749979318.1050074,1509
1749979318.1050782,1281
1749979318.1051586,1160
1749979318.1052308,1277
1749979318.1053028,1645
1749979318.105382,2072
1749979318.1054533,2327
1749979318.1126938,2348
1749979318.112772,2158
1749979318.112845,1854
1749979318.1129174,1548
1749979318.1129894,1310
1749979318.1130624,1165
1749979318.1131346,1242
1749979318.1132069,1579
1749979318.1132863,2019
1749979318.1133583,2313
1749979318.1134298,2375
1749979318.1135015,2218
1749979318.1135733,1934
1749979318.1136453,1626
1749979318.1137164,1375
1749979318.1137881,1198
1749979318.11386,1219
1749979318.1139312,1512
1749979318.1140027,1957
1749979318.1140745,2292
1749979318.1141453,2398
1749979318.114217,2271
1749979318.1142888,1998
1749979318.1143603,1684
1749979318.1144319,1422
1749979318.114503,1230
1749979318.1145744,1207
1749979318.1146462,1453
1749979318.1147177,1890
1749979318.1147895,2260
1749979318.1148608,2409
1749979318.1149356,2322
1749979318.1150072,2066
1749979318.1150784,1745
1749979318.1186938,1467
1749979318.1188033,1258
1749979318.1188796,1196
1749979318.1189494,1396
1749979318.119019,1812
1749979318.1190882,2206
1749979318.119167,2396
1749979318.1192358,2351
1749979318.1193051,2118
1749979318.119374,1799
1749979318.1194432,1504
1749979318.119513,1281
1749979318.1195824,1185
1749979318.1196535,1338
1749979318.1197236,1727
1749979318.1197934,2138
1749979318.119863,2364
1749979318.1199322,2361
1749979318.120001,2158
1749979318.1200712,1851
1749979318.1201415,1547
1749979318.1202114,1310
1749979318.1203568,1181
1749979318.1204662,1290
1749979318.1206636,1652
1749979318.120767,2083
1749979318.1208706,2347
1749979318.1209743,2381
1749979318.121077,2205
1749979318.12119,1912
1749979318.121294,1604
1749979318.1213973,1356
1749979318.1215003,1197
1749979318.1216028,1253
1749979318.121706,1575
1749979318.1219556,2014
1749979318.1220632,2318
1749979318.1221669,2395
1749979318.12227,2251
1749979318.122374,1969
1749979318.1224778,1649
1749979318.1225822,1384
1749979318.1231196,1200
1749979318.123228,1211
1749979318.123332,1494
1749979318.1234355,1935
1749979318.1235397,2275
1749979318.1247168,2393
1749979318.1248243,2285
1749979318.1249282,2023
1749979318.1250315,1706
1749979318.1251633,1433
1749979318.1515894,1232
1749979318.1516676,1200
1749979318.151741,1434
1749979318.1518197,1859
1749979318.1518927,2224
1749979318.1802099,2379
1749979318.2137675,2310
1749979318.239065,2075
1749979318.239207,1766
1749979318.2392914,1482
1749979318.2662325,1261
1749979318.2663765,1181
1749979318.2664585,1364
1749979318.2665377,1774
1749979318.2666216,2173
1749979318.2667,2368
1749979318.266779,2330
1749979318.2668576,2106
1749979318.2669353,1795
1749979318.267013,1505
1749979318.267093,1282
1749979318.2671723,1173
1749979318.2672522,1307
1749979318.2673306,1684
1749979318.269159,2103
1749979318.2721038,2345
1749979318.2721846,2357
1749979318.2722611,2163
1749979318.2723632,1858
1749979318.2724342,1552
1749979318.2725518,1314
1749979318.2727106,1176
1749979318.357609,1262
1749979318.410474,1602
1749979318.4442203,2029
1749979318.448556,2306
1749979318.4487176,2358
1749979318.4487906,2195
1749979318.4489274,1904
1749979318.4666872,1591
1749979318.5010607,1341
1749979318.5011408,1178
1749979318.5012162,1222
1749979318.5012953,1530
1749979318.5014718,1969
1749979318.501625,2284
1749979318.5017068,2373
1749979318.501856,2238
1749979318.5019393,1964
1749979318.5020208,1650
1749979318.5099413,1387
1749979318.5986779,1196
1749979318.6062303,1182
1749979318.6064441,1437
1749979318.6340451,1870
1749979318.6341307,2223
1749979318.6341999,2357
1749979318.6342678,2261
1749979318.6343381,2007
1749979318.6344032,1696
1749979318.634469,1430
1749979318.634535,1231
1749979318.6346009,1183
1749979318.6346672,1395
1749979318.6347342,1814
1749979318.6348002,2197
1749979318.6348662,2370
1749979318.634933,2311
1749979318.6349986,2073
1749979318.6350646,1759
1749979318.635145,1476
1749979318.6352105,1262
1749979318.6352758,1176
1749979318.6353414,1341
1749979318.6354065,1737
1749979318.6354718,2145
1749979318.6355379,2362
1749979318.6356032,2348
1749979318.6356704,2139
1749979318.6357365,1832
1749979318.6358037,1533
1749979318.6358707,1298
1749979318.6359365,1172
1749979318.6360037,1287
1749979318.6360698,1653
1749979318.6361353,2080
1749979318.6362007,2335
1749979318.6362686,2361
1749979318.6363342,2179
1749979318.6363995,1884
1749979318.6364603,1579
1749979318.6365206,1334
1749979318.6365864,1182
1749979318.636652,1252
1749979318.636717,1583
1749979318.6367824,2019
1749979318.6368492,2310
1749979318.6369154,2375
1749979318.6369812,2224
1749979318.6370463,1942
1749979318.6371121,1629
1749979318.6371784,1371
1749979318.637244,1193
1749979318.637309,1216
1749979318.6373768,1510
1749979318.6374424,1952
1749979318.637508,2283
1749979318.6375735,2391
1749979318.63764,2272
1749979318.6377037,2004
1749979318.6379101,1685
1749979318.6379888,1413
1749979318.6380565,1215
1749979318.638124,1192
1749979318.6381912,1439
1749979318.6382682,1873
1749979318.6383348,2239
1749979318.6384034,2387
1749979318.638476,2304
1749979318.6385412,2052
1749979318.6386063,1731
1749979318.6386745,1445
1749979318.6387424,1230
1749979318.6388092,1164
1749979318.6388767,1363
1749979318.6389427,1783
1749979318.639008,2183
1749979318.6390743,2376
1749979318.6391413,2334
1749979318.6392102,2103
1749979318.6392763,1786
1749979318.639342,1492
1749979318.6394088,1268
1749979318.639475,1169
1749979318.639543,1320
1749979318.6396155,1710
1749979318.6396823,2129
1749979318.6397488,2364
1749979318.6398199,2368
1749979318.639889,2167
1749979318.639962,1860
1749979318.6400306,1552
1749979318.6400971,1310
1749979318.6401634,1173
1749979318.6402338,1272
1749979318.6403022,1627
1749979318.640368,2059
1749979318.6404326,2330
1749979318.642515,2370
1749979318.6500046,2193
1749979318.6614432,1894
1749979318.7012434,1580
1749979318.7247484,1331
1749979318.7253861,1173
1749979318.7254717,1231
1749979318.7328084,1555
1749979318.7413824,2001
1749979318.7450583,2314
1749979318.7599916,2395
1749979318.779679,2248
1749979318.7838292,1961
1749979318.7944586,1636
1749979318.7950425,1367
1749979318.7951736,1178
1749979318.795279,1181
1749979318.7956471,1458
1749979318.809599,1905
1749979318.847466,2261
1749979318.8604782,2392
1749979318.8605788,2285
1749979318.861039,2014
1749979318.8656616,1686
1749979318.8657393,1408
1749979318.8658032,1207
1749979318.8658662,1171
1749979318.865938,1398
1749979318.8660092,1822
1749979318.934851,2198
1749979318.940099,2364
1749979318.9522336,2300
1749979318.9523146,2057
1749979318.9749882,1738
1749979319.0239553,1452
1749979319.0347905,1236
1749979319.0348938,1160
1749979319.034973,1343
1749979319.035053,1753
1749979319.0351474,2161
1749979319.0352263,2371
1749979319.0353043,2344
1749979319.0353825,2119
1749979319.035459,1798
1749979319.0355365,1492
1749979319.035701,1258
1749979319.035779,1145
1749979319.0372615,1282
1749979319.0373428,1669
1749979319.037423,2100
1749979319.0375037,2349
1749979319.0375853,2364
1749979319.0376656,2171
1749979319.037746,1869
1749979319.0378115,1564
1749979319.0378828,1322
1749979319.037963,1177
1749979319.0380516,1259
1749979319.0381382,1601
1749979319.0382195,2037
1749979319.0383003,2321
1749979319.0383809,2376
1749979319.0385206,2212
1749979319.0386028,1916
1749979319.0386837,1593
1749979319.0387657,1330
1749979319.0388465,1158
1749979319.0389273,1198
1749979319.039008,1507
1749979319.0390892,1951
1749979319.0391695,2273
1749979319.0392501,2371
1749979319.0393307,2244
1749979319.0394096,1971
1749979319.0394864,1649
1749979319.0395668,1376
1749979319.0396476,1179
1749979319.0397282,1169
1749979319.0398085,1434
1749979319.039889,1875
1749979319.0399704,2235
1749979319.0400507,2371
1749979319.0401313,2275
1749979319.0402312,2015
1749979319.0403135,1694
1749979319.040394,1415
1749979319.0404747,1207
1749979319.0405364,1156
1749979319.0406146,1372
1749979319.0407217,1799
1749979319.0408022,2193
1749979319.0408828,2379
1749979319.0409634,2329
1749979319.0410435,2091
1749979319.0411448,1770
1749979319.0412254,1477
1749979319.0413148,1255
1749979319.0413957,1167
1749979319.041476,1333
1749979319.0415761,1732
1749979319.0416574,2142
1749979319.0417376,2358
1749979319.0418093,2340
1749979319.0418842,2126
1749979319.046364,1817
1749979319.047254,1518
1749979319.0473342,1284
1749979319.0474114,1157
1749979319.0474887,1272
1749979319.047566,1644
1749979319.047657,2083
1749979319.0477347,2349
1749979319.047813,2377
1749979319.0478897,2189
1749979319.0479665,1886
1749979319.0480561,1574
1749979319.0481334,1326
1749979319.0482101,1169
1749979319.0482872,1235
1749979319.0483649,1571
1749979319.0484526,2019
1749979319.0485635,2320
1749979319.0486374,2384
1749979319.0487156,2223
1749979319.0487933,1934
1749979319.0488708,1624
1749979319.0489485,1374
1749979319.0490263,1198
1749979319.049104,1213
1749979319.0491815,1496
1749979319.049259,1936
1749979319.0493371,2274
1749979319.049415,2386
1749979319.0494926,2265
1749979319.049568,1992
1749979319.0496387,1674
1749979319.0497165,1409
1749979319.0569878,1216
1749979319.0570734,1189
1749979319.0571537,1429
1749979319.059753,1862
1749979319.0598326,2235
1749979319.059911,2392
1749979319.0599885,2312
1749979319.0600657,2056
1749979319.0601428,1733
1749979319.06022,1450
1749979319.0602973,1240
1749979319.0603745,1173
1749979319.0604515,1367
1749979319.0605185,1781
1749979319.0605848,2182
1749979319.0606623,2381
1749979319.060744,2344
1749979319.060822,2116
1749979319.0608988,1799
1749979319.0609767,1507
1749979319.0610545,1286
1749979319.0611317,1185
1749979319.0612087,1328
1749979319.0612867,1707
1749979319.0613663,2120
1749979319.0614443,2354
1749979319.0615222,2360
1749979319.0615995,2163
1749979319.061677,1857
1749979319.0617547,1552
1749979319.0618286,1314
1749979319.0618935,1182
1749979319.0619738,1281
1749979319.0620513,1635
1749979319.0621293,2065
1749979319.0622067,2336
1749979319.0622869,2376
1749979319.0623639,2201
1749979319.062441,1903
1749979319.0625184,1588
1749979319.062596,1337
1749979319.0626736,1177
1749979319.0627518,1230
1749979319.0628285,1549
1749979319.062906,1992
1749979319.0629947,2306
1749979319.0630734,2393
1749979319.063151,2254
1749979319.0632284,1972
1749979319.0633056,1650
1749979319.063383,1387
1749979319.0634604,1205
1749979319.063538,1213
1749979319.0636156,1486
1749979319.0636928,1921
1749979319.06377,2265
1749979319.0638478,2392
1749979319.0639253,2292
1749979319.0640025,2029
1749979319.0640798,1702
1749979319.0641575,1420
1749979319.064235,1217
1749979319.0643122,1185
1749979319.0643907,1421
1749979319.064468,1851
1749979319.0645323,2228
1749979319.0645983,2396
1749979319.0646763,2335
1749979319.064756,2098
1749979319.064834,1777
1749979319.0649214,1483
1749979319.0649877,1259
1749979319.065053,1180
1749979319.0651288,1365
1749979319.065195,1777
1749979319.065262,2183
1749979319.0838501,2389
1749979319.1023943,2363
1749979319.1026127,2144
1749979319.1159778,1831
1749979319.1220977,1530
1749979319.1221812,1297
1749979319.1222563,1184
1749979319.122331,1321
1749979319.1224098,1705
1749979319.1224842,2132
1749979319.1225612,2375
1749979319.122638,2386
1749979319.122715,2191
1749979319.1227918,1888
1749979319.1228688,1580
1749979319.1229448,1334
1749979319.1230211,1184
1749979319.1230974,1264
1749979319.1231737,1608
1749979319.12325,2048
1749979319.1233265,2335
1749979319.123403,2390
1749979319.1234794,2228
1749979319.123556,1939
1749979319.1236322,1624
1749979319.123708,1365
1749979319.1237838,1187
1749979319.1238613,1214
1749979319.123947,1515
1749979319.124023,1960
1749979319.1240993,2285
1749979319.1241755,2380
1749979319.1242516,2246
1749979319.1243277,1969
1749979319.1244042,1653
1749979319.124478,1391
1749979319.1245506,1199
1749979319.1246219,1183
1749979319.124693,1435
1749979319.124764,1870
1749979319.124835,2231
1749979319.1249065,2372
1749979319.1249774,2282
1749979319.1250484,2030
1749979319.1255705,1717
1749979319.1276503,1446
1749979319.130597,1241
1749979319.1307096,1186
1749979319.1308324,1393
1749979319.1309402,1814
1749979319.1310463,2203
1749979319.1311653,2383
1749979319.1312742,2327
1749979319.1313806,2088
1749979319.1314874,1772
1749979319.1316047,1486
1749979319.131714,1268
1749979319.1318467,1176
1749979319.1319537,1333
1749979319.1331134,1726
1749979319.1332226,2139
1749979319.1333294,2365
1749979319.1334472,2357
1749979319.1335552,2148
1749979319.1336613,1838
1749979319.1338978,1538
1749979319.1340055,1308
1749979319.1341114,1186
1749979319.1343367,1301
1749979319.1366172,1665
1749979319.1367447,2093
1749979319.1370807,2351
1749979319.137204,2380
1749979319.1373227,2198
1749979319.137457,1899
1749979319.1375754,1589
1749979319.1376987,1342
1749979319.1379275,1188
1749979319.1380455,1255
1749979319.1381638,1587
1749979319.1382802,2028
1749979319.13841,2327
1749979319.1385496,2397
1749979319.138667,2246
1749979319.138798,1962
1749979319.1389153,1647
1749979319.139033,1387
1749979319.1391497,1207
1749979319.140679,1224
1749979319.1419213,1510
1749979319.142004,1951
1749979319.1420822,2289
1749979319.1421604,2406
1749979319.1422536,2295
1749979319.1423311,2029
1749979319.1424084,1707
1749979319.1424859,1431
1749979319.142563,1230
1749979319.1480374,1204
1749979319.171957,1448
1749979319.1720707,1880
1749979319.1721752,2244
1749979319.172279,2392
1749979319.172382,2311
1749979319.1724854,2063
1749979319.1725886,1747
1749979319.1726904,1466
1749979319.1727931,1254
1749979319.172895,1187
1749979319.1729975,1380
1749979319.1731167,1792
1749979319.1773758,2186
1749979319.177487,2378
1749979319.1775918,2338
1749979319.177695,2114
1749979319.1777976,1802
1749979319.1779003,1507
1749979319.1780033,1276
1749979319.178106,1165
1749979319.1782088,1308
1749979319.1783123,1699
1749979319.1784148,2125
1749979319.1785295,2365
1749979319.178634,2369
1749979319.178737,2169
1749979319.1788394,1866
1749979319.178942,1565
1749979319.1790504,1327
1749979319.1791534,1188
1749979319.1792557,1281
1749979319.1793582,1635
1749979319.1794608,2073
1749979319.1795633,2348
1749979319.1796656,2388
1749979319.1797688,2215
1749979319.2232196,1926
1749979319.2233126,1625
1749979319.2233956,1382
1749979319.2239225,1216
1749979319.224041,1255
1749979319.2241223,1563
1749979319.244042,2005
1749979319.2574499,2322
1749979319.257538,2407
1749979319.2576232,2264
1749979319.2577043,1982
1749979319.2896256,1667
1749979319.3184483,1409
1749979319.338078,1225
1749979319.345443,1225
1749979319.365738,1493
1749979319.3659985,1932
1749979319.3661053,2282
1749979319.3804371,2411
1749979319.38085,2311
1749979319.380928,2054
1749979319.3810027,1740
1749979319.3810778,1469
1749979319.3811517,1265
1749979319.3815038,1221
1749979319.3931928,1443
1749979319.393293,1868
1749979319.3933787,2250
1749979319.3934634,2419
1749979319.3935502,2356
1749979319.3936687,2115
1749979319.3937457,1799
1749979319.394004,1513
1749979319.3941238,1296
1749979319.3942096,1213
1749979319.3942957,1389
1749979319.3943803,1794
1749979319.394465,2202
1749979319.3951123,2411
1749979319.3952115,2385
1749979319.3952975,2164
1749979319.3953812,1851
1749979319.395483,1556
1749979319.395567,1330
1749979319.3956506,1216
1749979319.3964386,1344
1749979319.3973858,1721
1749979319.4055169,2151
1749979319.4056299,2403
1749979319.4057345,2418
1749979319.405952,2221
1749979319.4060557,1915
1749979319.406158,1605
1749979319.4062617,1362
1749979319.4063392,1214
1749979319.4064136,1291
1749979319.4064877,1631
1749979319.4065623,2073
1749979319.4066358,2366
1749979319.4067097,2427
1749979319.4067838,2262
1749979319.406859,1963
1749979319.406933,1640
1749979319.4070065,1382
1749979319.407087,1216
1749979319.407152,1257
1749979319.4072182,1565
1749979319.4072835,2011
1749979319.407357,2340
1749979319.4074347,2444
1749979319.4075134,2322
1749979319.4075904,2050
1749979319.4076679,1726
1749979319.407745,1448
1749979319.4078217,1247
1749979319.4078994,1232
1749979319.4079766,1492
1749979319.4080532,1934
1749979319.4081306,2296
1749979319.4082084,2434
1749979319.4082844,2337
1749979319.4083612,2072
1749979319.4084516,1743
1749979319.4086142,1456
1749979319.4086907,1242
1749979319.408767,1186
1749979319.4088433,1397
1749979319.40892,1822
1749979319.408997,2218
1749979319.4090796,2407
1749979319.4091556,2359
1749979319.4092321,2121
1749979319.4093082,1795
1749979319.4093847,1492
1749979319.4094608,1261
1749979319.4095368,1166
1749979319.4096131,1329
1749979319.4096894,1729
1749979319.409867,2149
1749979319.4099438,2378
1749979319.41002,2372
1749979319.4100966,2161
1749979319.410173,1841
1749979319.4102495,1525
1749979319.4103262,1279
1749979319.4104033,1151
1749979319.4104805,1270
1749979319.410557,1644
1749979319.4106336,2083
1749979319.4107103,2350
1749979319.4107869,2382
1749979319.4108632,2198
1749979319.4109397,1894
1749979319.4110208,1577
1749979319.4110904,1322
1749979319.4111648,1163
1749979319.411241,1227
1749979319.4113176,1561
1749979319.4113941,2010
1749979319.4114707,2322
1749979319.4115467,2403
1749979319.4116232,2257
1749979319.4116993,1971
1749979319.411795,1650
1749979319.4118721,1384
1749979319.4119487,1198
1749979319.412026,1210
1749979319.4121025,1496
1749979319.412179,1944
1749979319.4122558,2290
1749979319.4123325,2409
1749979319.412409,2291
1749979319.4125712,2017
1749979319.4126487,1693
1749979319.4127252,1421
1749979319.4128022,1225
1749979319.4128785,1199
1749979319.4129658,1441
1749979319.4130425,1877
1749979319.4131184,2252
1749979319.4131944,2409
1749979319.4132707,2328
1749979319.413347,2073
1749979319.4624898,1749
1749979319.4628773,1464
1749979319.463271,1251
1749979319.4636393,1183
1749979319.464006,1376
1749979319.4643755,1792
1749979319.4647229,2194
1749979319.465087,2393
1749979319.4654772,2354
1749979319.4658222,2124
1749979319.4661865,1804
1749979319.4665484,1505
1749979319.4669113,1276
1749979319.467274,1170
1749979319.46764,1314
1749979319.4680037,1703
1749979319.4683695,2129
1749979319.5066686,2371
1749979319.5069594,2379
1749979319.5071707,2179
1749979319.5072773,1871
1749979319.507397,1563
1749979319.5075,1323
1749979319.5076032,1189
1749979319.5402768,1291
1749979319.5523539,1652
1749979319.5584624,2093
1749979319.5750513,2372
1749979319.5751557,2416
1749979319.5752254,2243
1749979319.575297,1947
1749979319.5753658,1633
1749979319.5754404,1380
1749979319.5755057,1212
1749979319.5755703,1253
1749979319.5756373,1562
1749979319.575994,2002
1749979319.5760646,2320
1749979319.5761323,2412
1749979319.5761988,2278
1749979319.576264,1998
1749979319.576331,1675
1749979319.5763958,1406
1749979319.5764554,1218
1749979319.5765147,1220
1749979319.5765796,1492
1749979319.5766442,1932
1749979319.5767083,2281
1749979319.5767741,2408
1749979319.5768406,2305
1749979319.576906,2044
1749979319.5769708,1725
1749979319.577037,1450
1749979319.5771015,1244
1749979319.5771763,1197
1749979319.5772526,1416
1749979319.5773184,1839
1749979319.5773835,2219
1749979319.5774493,2390
1749979319.5775146,2326
1749979319.577579,2083
1749979319.5776436,1762
1749979319.5777047,1471
1749979319.5777626,1252
1749979319.5778263,1172
1749979319.577891,1353
1749979319.5779586,1763
1749979319.5780284,2172
1749979319.5782757,2379
1749979319.5783415,2348
1749979319.5784063,2123
1749979319.5784874,1807
1749979319.5785525,1506
1749979319.5786188,1272
1749979319.578684,1153
1749979319.578749,1281
1749979319.5788152,1662
1749979319.5788796,2095
1749979319.5789506,2349
1749979319.5790164,2365
1749979319.5790825,2172
1749979319.5791476,1868
1749979319.5792139,1560
1749979319.57928,1316
1749979319.5793462,1167
1749979319.5794113,1244
1749979319.5794775,1584
1749979319.5795422,2025
1749979319.5796068,2318
1749979319.5796728,2381
1749979319.5797393,2221
1749979319.5798047,1931
1749979319.5798702,1613
1749979319.5799341,1353
1749979319.5799987,1177
1749979319.580065,1208
1749979319.580129,1512
1749979319.5801954,1961
1749979319.580263,2291
1749979319.5803282,2390
1749979319.580394,2257
1749979319.580453,1979
1749979319.580511,1659
1749979319.5805762,1391
1749979319.5806415,1194
1749979319.5807061,1174
1749979319.5807714,1426
1749979319.580836,1865
1749979319.5809014,2234
1749979319.5810707,2383
1749979319.5930564,2293
1749979319.5932126,2033
1749979319.5941002,1709
1749979319.6007261,1430
1749979319.6008074,1226
1749979319.6008809,1177
1749979319.6009533,1390
1749979319.6010258,1812
1749979319.601097,2203
1749979319.6430151,2388
1749979319.674455,2341
1749979319.6746051,2109
1749979319.6747012,1793
1749979319.6752505,1498
1749979319.6753988,1273
1749979319.6765451,1179
1749979319.6767402,1342
1749979319.676846,1741
1749979319.6769695,2157
1749979319.683567,2380
1749979319.6836405,2369
1749979319.683709,2158
1749979319.6837747,1845
1749979319.6838408,1538
1749979319.6839066,1297
1749979319.6839733,1164
1749979319.6840394,1273
1749979319.6841078,1640
1749979319.684174,2077
1749979319.6842406,2345
1749979319.6843112,2378
1749979319.6843781,2198
1749979319.6844385,1900
1749979319.684497,1591
1749979319.6845586,1342
1749979319.684618,1181
1749979319.6846766,1237
1749979319.684736,1560
1749979319.6847951,2002
1749979319.6848538,2307
1749979319.6849132,2382
1749979319.6849723,2234
1749979319.6850314,1953
1749979319.68509,1643
1749979319.6851814,1389
1749979319.6852467,1211
1749979319.6853118,1224
1749979319.6853774,1507
1749979319.6854434,1948
1749979319.6855083,2287
1749979319.6855743,2399
1749979319.685639,2280
1749979319.6857014,2011
1749979319.68576,1694
1749979319.6858306,1427
1749979319.6858957,1228
1749979319.6859615,1192
1749979319.6860266,1423
1749979319.6860926,1853
1749979319.686158,2228
1749979319.686223,2388
1749979319.6862946,2312
1749979319.6863596,2061
1749979319.686425,1744
1749979319.6864982,1466
1749979319.686573,1256
1749979319.6866488,1186
1749979319.686714,1372
1749979319.6867788,1781
1749979319.6868453,2181
1749979319.6869106,2381
1749979319.6869779,2345
1749979319.6870463,2117
1749979319.6871314,1804
1749979319.6872149,1513
1749979319.6872857,1290
1749979319.6873517,1183
1749979319.6874166,1321
1749979319.687481,1704
1749979319.6875453,2129
1749979319.6876104,2373
1749979319.6876836,2381
1749979319.6877496,2180
1749979319.6878147,1873
1749979319.6980495,1571
1749979319.6989224,1335
1749979319.7051651,1197
1749979319.7052417,1287
1749979319.7053106,1638
1749979319.7053843,2078
1749979319.705451,2360
1749979319.7055194,2406
1749979319.705587,2232
1749979319.7056546,1938
1749979319.7057211,1630
1749979319.7057893,1385
1749979319.7066078,1221
1749979319.7067053,1263
1749979319.7067738,1576
1749979319.706844,2025
1749979319.7069118,2349
1749979319.7069826,2438
1749979319.7070575,2294
1749979319.707129,2009
1749979319.7071996,1690
1749979319.7072663,1425
1749979319.7073333,1231
1749979319.7074013,1219
1749979319.7074773,1481
1749979319.7075508,1925
1749979319.707616,2286
1749979319.7076828,2422
1749979319.7077503,2319
1749979319.7078192,2053
1749979319.7078907,1730
1749979319.707959,1454
1749979319.7080278,1250
1749979319.7080948,1205
1749979319.7081609,1427
1749979319.7082286,1854
1749979319.7082942,2240
1749979319.708361,2412
1749979319.7084231,2349
1749979319.7086484,2106
1749979319.7087462,1785
1749979319.7088149,1495
1749979319.7089014,1272
1749979319.7089717,1186
1749979319.709037,1357
1749979319.7091043,1761
1749979319.7091715,2173
1749979319.7092376,2388
1749979319.7093065,2368
1749979319.7387023,2149
1749979319.7581098,1832
1749979319.7585826,1529
1749979319.7589688,1295
1749979319.7603097,1176
1749979319.7608025,1300
1749979319.7612875,1672
1749979319.7617936,2100
1749979319.7622101,2354
1749979319.7625647,2378
1749979319.763019,2190
1749979319.7633626,1885
1749979319.763686,1571
1749979319.7640092,1325
1749979319.7643363,1181
