1749980936.2478502,1390
1749980936.379509,1254
1749980936.3816297,1395
1749980936.4118018,1826
1749980936.42045,2326
1749980936.4205241,2613
1749980936.4205909,2608
1749980936.4206567,2367
1749980936.42072,2032
1749980936.420786,1708
1749980936.4208505,1447
1749980936.420911,1277
1749980936.4209733,1346
1749980936.4210377,1710
1749980936.4211025,2199
1749980936.4211676,2530
1749980936.421233,2592
1749980936.4212976,2404
1749980936.4213629,2080
1749980936.4214275,1731
1749980936.4214923,1442
1749980936.4215574,1248
1749980936.425857,1285
1749980936.4340405,1622
1749980936.434124,2118
1749980936.4342043,2484
1749980936.4342818,2586
1749980936.4343588,2430
1749980936.4344351,2121
1749980936.4345124,1773
1749980936.4345884,1480
1749980936.434665,1273
1749980936.434741,1266
1749980936.434817,1552
1749980936.4348936,2032
1749980936.4349918,2428
1749980936.4350681,2578
1749980936.4351447,2471
1749980936.435221,2190
1749980936.4352975,1845
1749980936.4353735,1536
1749980936.4354496,1300
1749980936.4355276,1238
1749980936.4356046,1472
1749980936.4356842,1942
1749980936.4357612,2380
1749980936.4364774,2580
1749980936.4365745,2508
1749980936.4366508,2239
1749980936.4367268,1893
1749980936.4368029,1578
1749980936.4368787,1338
1749980936.436954,1242
1749980936.4370296,1424
1749980936.4371054,1862
1749980936.437181,2320
1749980936.437256,2566
1749980936.4373322,2544
1749980936.4374077,2302
1749980936.437485,1959
1749980936.4375494,1626
1749980936.437615,1367
1749980936.4376788,1234
1749980936.4377437,1369
1749980936.4378083,1778
1749980936.4378734,2257
1749980936.4379385,2547
1749980936.4380074,2571
1749980936.4380746,2357
1749980936.438142,2020
1749980936.4382064,1673
1749980936.4382818,1397
1749980936.4383528,1234
1749980936.4384174,1322
1749980936.4384828,1698
1749980936.4385483,2189
1749980936.4386125,2520
1749980936.438681,2587
1749980936.4387445,2407
1749980936.4388092,2088
1749980936.4388735,1740
1749980936.438941,1452
1749980936.4390094,1259
1749980936.4390788,1290
1749980936.4391584,1617
1749980936.4392285,2109
1749980936.4392986,2481
1749980936.439368,2595
1749980936.4394479,2448
1749980936.439517,2141
1749980936.4395862,1789
1749980936.4396548,1492
1749980936.4397247,1282
1749980936.4397936,1269
1749980936.439863,1550
1749980936.4399323,2033
1749980936.4400008,2442
1749980936.4400697,2607
1749980936.4401402,2507
1749980936.4402094,2221
1749980936.440278,1863
1749980936.4403467,1544
1749980936.4404154,1306
1749980936.4404838,1245
1749980936.44055,1478
1749980936.4406185,1945
1749980936.4406877,2381
1749980936.4407563,2583
1749980936.4408245,2520
1749980936.440893,2257
1749980936.4409618,1911
1749980936.441029,1590
1749980936.4410975,1345
1749980936.4411662,1248
1749980936.441234,1433
1749980936.4413025,1872
1749980936.4413798,2331
1749980936.441447,2577
1749980936.4415154,2561
1749980936.4415834,2328
1749980936.4437225,1992
1749980936.4438016,1659
1749980936.4438732,1392
1749980936.4439445,1251
1749980936.4440155,1382
1749980936.444083,1795
1749980936.4441497,2280
1749980936.4443731,2572
1749980936.4444363,2594
1749980936.4444945,2379
1749980936.4445658,2045
1749980936.4446373,1702
1749980936.444708,1425
1749980936.4447787,1259
1749980936.4448485,1345
1749980936.4449189,1725
1749980936.4450057,2225
1749980936.445076,2561
1749980936.4451456,2628
1749980936.445215,2446
1749980936.445294,2128
1749980936.445364,1781
1749980936.4454336,1491
1749980936.4455037,1288
1749980936.4455729,1308
1749980936.4456425,1629
1749980936.445712,2121
1749980936.4457824,2496
1749980936.4458494,2613
1749980936.4507308,2469
1749980936.4512804,2167
1749980936.4517531,1815
1749980936.452025,1513
1749980936.452171,1296
1749980936.4522605,1278
1749980936.4523346,1561
1749980936.4524095,2048
1749980936.4524834,2458
1749980936.452558,2619
1749980936.4526339,2517
1749980936.4527118,2235
1749980936.4527845,1883
1749980936.454345,1564
1749980936.454805,1321
1749980936.4553864,1254
1749980936.4560337,1489
1749980936.457248,1964
1749980936.459404,2407
1749980936.4623017,2610
1749980936.4764967,2543
1749980936.477567,2278
1749980936.4807696,1932
1749980936.4808857,1608
1749980936.4812682,1352
1749980936.4813719,1239
1749980936.4814758,1413
1749980936.4815798,1853
1749980936.4816983,2323
1749980936.4818025,2576
1749980936.4819062,2557
1749980936.4820101,2317
1749980936.4821134,1977
1749980936.4822176,1644
1749980936.4823205,1383
1749980936.4824238,1245
1749980936.4825268,1371
1749980936.4826305,1776
1749980936.4827402,2258
1749980936.4828436,2551
1749980936.4829469,2577
1749980936.4830508,2365
1749980936.4853537,2034
1749980936.4854636,1693
1749980936.4855716,1418
1749980936.4856791,1248
1749980936.4857864,1322
1749980936.4858942,1687
1749980936.4860013,2182
1749980936.486108,2522
1749980936.4862154,2599
1749980936.486813,2424
1749980936.4869273,2110
1749980936.4870358,1763
1749980936.487157,1472
1749980936.4872682,1272
1749980936.4873762,1297
1749980936.487484,1627
1749980936.4876041,2130
1749980936.4877126,2509
1749980936.4878206,2620
1749980936.4879284,2470
1749980936.4880462,2169
1749980936.4881542,1830
1749980936.5034645,1538
1749980936.5109594,1315
1749980936.512095,1278
1749980936.5127556,1542
1749980936.5133853,2026
1749980936.514114,2447
1749980936.5147336,2619
1749980936.515388,2519
1749980936.5160089,2235
1749980936.5167918,1887
1749980936.5183852,1580
1749980936.5194337,1350
1749980936.521328,1283
1749980936.5394073,1506
1749980936.5609117,1969
1749980936.5609875,2416
1749980936.561089,2634
1749980936.5612426,2584
1749980936.5613954,2324
1749980936.5615156,1970
1749980936.5616364,1637
1749980936.5617607,1383
1749980936.5618765,1277
1749980936.5619955,1450
1749980936.5621114,1881
1749980936.5622559,2340
1749980936.5623655,2589
1749980936.56244,2578
1749980936.562513,2348
1749980936.5625863,2011
1749980936.5626597,1673
1749980936.5627327,1402
1749980936.5628037,1254
1749980936.5628772,1373
1749980936.5629504,1776
1749980936.5630233,2261
1749980936.5630963,2560
1749980936.5631695,2594
1749980936.5632427,2388
1749980936.5633152,2058
1749980936.5633833,1712
1749980936.5634518,1432
1749980936.5635202,1256
1749980936.563589,1325
1749980936.5636578,1685
1749980936.5637264,2177
1749980936.5637944,2520
1749980936.563863,2602
1749980936.5639317,2431
1749980936.564,2114
1749980936.5640686,1761
1749980936.5641372,1465
1749980936.5642064,1260
1749980936.5642745,1276
1749980936.564343,1589
1749980936.5644116,2077
1749980936.5644803,2456
1749980936.5645483,2580
1749980936.564617,2444
1749980936.5646853,2144
1749980936.5647533,1795
1749980936.5648222,1497
1749980936.5648906,1279
1749980936.5649648,1250
1749980936.5650342,1513
1749980936.5651026,1990
1749980936.5651715,2407
1749980936.565247,2583
1749980936.5653157,2493
1749980936.565384,2214
1749980936.5654528,1862
1749980936.5655215,1545
1749980936.5655897,1307
1749980936.565658,1234
1749980936.56637,1453
1749980936.566481,1915
1749980936.654749,2362
1749980936.7059295,2578
1749980936.706635,2525
1749980936.7078981,2267
1749980936.7084548,1925
1749980936.7089434,1605
1749980936.709431,1357
1749980936.754722,1246
1749980936.754813,1413
1749980936.7715173,1845
1749980936.7716432,2316
1749980936.7718456,2577
1749980936.7758176,2570
1749980936.7759705,2338
1749980936.7762957,2003
1749980936.7764204,1672
1749980936.7765234,1408
1749980936.7766562,1258
1749980936.7767587,1369
1749980936.7768607,1764
1749980936.7797887,2251
1749980936.7798994,2560
1749980936.780003,2602
1749980936.8726873,2399
1749980936.8865874,2069
1749980936.8875735,1722
1749980936.8876574,1442
1749980936.8877425,1266
1749980936.88782,1331
1749980936.8878996,1689
1749980936.8879786,2181
1749980936.8880572,2527
1749980936.8881361,2610
1749980936.8882146,2439
1749980936.8883333,2122
1749980936.8884106,1772
1749980936.8884752,1481
1749980936.8885534,1281
1749980936.8886318,1295
1749980936.8887038,1606
1749980936.8889089,2095
1749980936.8889945,2479
1749980936.889068,2610
1749980936.892614,2482
1749980936.8927653,2187
1749980936.892911,1837
1749980936.8931897,1531
1749980936.8933332,1306
1749980936.8934767,1270
1749980936.8936307,1534
1749980936.8937738,2014
1749980936.8939168,2435
1749980936.8940597,2614
1749980936.894203,2529
1749980936.894346,2254
1749980936.8944888,1903
1749980936.8946323,1585
1749980936.8947752,1346
1749980936.894899,1273
1749980936.9223812,1489
1749980936.922542,1944
1749980936.9226177,2386
1749980936.9226913,2606
1749980936.922767,2568
1749980936.9228399,2323
1749980936.9229128,1980
1749980936.9229858,1648
1749980936.9230573,1389
1749980936.9231346,1275
1749980936.923206,1441
1749980936.9232783,1869
1749980936.923351,2329
1749980936.9234238,2582
1749980936.923496,2576
1749980936.923568,2353
1749980936.9236412,2024
1749980936.9237132,1692
1749980936.9237766,1426
1749980936.9238486,1278
1749980936.9239218,1390
1749980936.9240053,1783
1749980936.9240797,2266
1749980936.9241512,2569
1749980936.9242237,2609
1749980936.924296,2411
1749980936.9243658,2087
1749980936.9244258,1743
1749980936.9244933,1459
1749980936.924569,1274
1749980936.9246402,1328
1749980936.924712,1679
1749980936.9247842,2172
1749980936.9248557,2523
1749980936.9249275,2609
1749980936.9250185,2438
1749980936.9250963,2123
1749980936.9251688,1776
1749980936.9252405,1489
1749980936.9253125,1287
1749980936.925384,1292
1749980936.9254556,1594
1749980936.925532,2082
1749980936.925605,2474
1749980936.925677,2611
1749980936.9257486,2484
1749980936.9258196,2191
1749980936.9258912,1848
1749980936.9259622,1552
1749980936.9260342,1330
1749980936.9286265,1287
1749980936.9293764,1536
1749980936.9358,2009
1749980936.9367127,2434
1749980936.9368026,2617
1749980936.9368763,2534
1749980936.9370418,2260
1749980936.93711,1912
1749980936.9450626,1595
1749980937.0157614,1350
1749980937.0161397,1262
1749980937.0162292,1467
1749980937.0163188,1925
1749980937.0164092,2384
1749980937.0164928,2614
1749980937.0165763,2571
1749980937.0166602,2315
1749980937.0167425,1968
1749980937.0168254,1640
1749980937.0261855,1386
1749980937.0264244,1267
1749980937.0264976,1421
1749980937.0265665,1845
1749980937.026633,2318
1749980937.026699,2590
1749980937.0269797,2593
1749980937.02705,2367
1749980937.0271165,2029
1749980937.0419858,1688
1749980937.0424738,1415
1749980937.0779436,1260
1749980937.078482,1368
1749980937.0785875,1765
1749980937.07869,2261
1749980937.0787923,2578
1749980937.0788944,2625
1749980937.0789964,2427
1749980937.0790977,2100
1749980937.082937,1750
1749980937.0840037,1460
1749980937.0841775,1268
1749980937.1089659,1317
1749980937.1132913,1668
1749980937.1484423,2169
1749980937.1895857,2532
1749980937.2155194,2628
1749980937.246006,2464
1749980937.265784,2149
1749980937.2660606,1797
1749980937.2661383,1502
1749980937.2662132,1295
1749980937.283342,1299
1749980937.292583,1604
1749980937.3110294,2102
1749980937.3145618,2505
1749980937.3153052,2648
1749980937.316591,2520
1749980937.316716,2218
1749980937.3167915,1863
1749980937.3168852,1558
1749980937.3169553,1333
1749980937.3170254,1288
1749980937.3171382,1539
1749980937.3184261,2018
1749980937.3186674,2455
1749980937.318832,2651
1749980937.3189008,2573
1749980937.3189664,2294
1749980937.3190327,1938
1749980937.3191352,1616
1749980937.3192017,1372
1749980937.319267,1285
1749980937.3193328,1486
1749980937.3193989,1939
1749980937.3194652,2397
1749980937.319531,2630
1749980937.3195999,2590
1749980937.319667,2333
1749980937.319733,1984
1749980937.319799,1653
1749980937.319865,1399
1749980937.3199308,1278
1749980937.3199964,1428
1749980937.3200796,1848
1749980937.320147,2322
1749980937.3202136,2600
1749980937.3202815,2611
1749980937.320341,2389
1749980937.320404,2048
1749980937.3204687,1702
1749980937.320534,1427
1749980937.320599,1269
1749980937.3206644,1369
1749980937.3207295,1751
1749980937.3207955,2234
1749980937.3208606,2549
1749980937.3209202,2604
1749980937.3209825,2416
1749980937.321049,2092
1749980937.3211143,1742
1749980937.3211796,1453
1749980937.3212452,1266
1749980937.3213105,1316
1749980937.3213751,1662
1749980937.3214402,2157
1749980937.3215055,2516
1749980937.3452473,2614
1749980937.3466508,2458
1749980937.3467276,2154
1749980937.3467948,1809
1749980937.3468618,1512
1749980937.3469284,1296
1749980937.346994,1287
1749980937.3470602,1581
1749980937.347127,2072
1749980937.3471925,2472
1749980937.347258,2614
1749980937.347324,2491
1749980937.34739,2198
1749980937.3474562,1852
1749980937.3475223,1551
1749980937.3475885,1325
1749980937.3476543,1273
1749980937.3477204,1515
1749980937.3477995,1986
1749980937.3478658,2415
1749980937.3479316,2604
1749980937.3479972,2527
1749980937.3480637,2257
1749980937.3481297,1912
1749980937.3481956,1595
1749980937.3482616,1350
1749980937.348355,1257
1749980937.3484228,1452
1749980937.3484879,1902
1749980937.348554,2362
1749980937.348624,2597
1749980937.348695,2560
1749980937.3487654,2308
1749980937.3488364,1963
1749980937.3489072,1633
1749980937.3489785,1376
1749980937.349049,1251
1749980937.3491197,1398
1749980937.3491914,1817
1749980937.3492625,2294
1749980937.3493342,2571
1749980937.3494036,2582
1749980937.3494747,2364
1749980937.3495436,2034
1749980937.3496146,1697
1749980937.349691,1424
1749980937.349768,1261
1749980937.3498387,1354
1749980937.3499098,1740
1749980937.3499806,2235
1749980937.3500516,2561
1749980937.350122,2618
1749980937.3501928,2425
1749980937.3502634,2099
1749980937.3503342,1748
1749980937.350405,1460
1749980937.3504755,1272
1749980937.3505464,1318
1749980937.359672,1664
1749980937.3597493,2162
1749980937.3598225,2526
1749980937.359895,2627
1749980937.3599617,2471
1749980937.3600345,2163
1749980937.360107,1813
1749980937.360179,1514
1749980937.3602507,1299
1749980937.3603222,1289
1749980937.3603945,1581
1749980937.3604662,2072
1749980937.3605385,2476
1749980937.3606098,2627
1749980937.3606815,2510
1749980937.3607526,2214
1749980937.360824,1856
1749980937.3608954,1541
1749980937.3609672,1308
1749980937.361039,1257
1749980937.36111,1502
1749980937.3611815,1976
1749980937.3612528,2411
1749980937.361324,2608
1749980937.3613954,2536
1749980937.3614666,2267
1749980937.3615384,1916
1749980937.3616211,1590
1749980937.3616931,1338
1749980937.361765,1241
1749980937.361836,1435
1749980937.3619077,1889
1749980937.3619788,2355
1749980937.36205,2595
1749980937.3621216,2560
1749980937.3621926,2307
1749980937.362264,1961
1749980937.362335,1631
1749980937.3624058,1373
1749980937.3624766,1242
1749980937.3625476,1381
1749980937.3626187,1798
1749980937.3626895,2282
1749980937.3627605,2572
1749980937.3628314,2593
1749980937.3629026,2374
1749980937.3629742,2035
1749980937.363046,1690
1749980937.3631167,1417
1749980937.3631883,1258
1749980937.363259,1352
1749980937.3633304,1734
1749980937.3634014,2230
1749980937.3634725,2561
1749980937.3635485,2624
1749980937.36362,2436
1749980937.3636909,2111
1749980937.3637617,1762
1749980937.3638334,1476
1749980937.363905,1285
1749980937.3639762,1321
1749980937.3640466,1656
1749980937.3641176,2156
1749980937.3641884,2531
1749980937.3642592,2639
1749980937.3643308,2483
1749980937.3644016,2172
1749980937.3644726,1824
1749980937.3645437,1536
1749980937.3646147,1331
1749980937.3646853,1326
1749980937.3647566,1621
1749980937.3648274,2119
1749980937.3648984,2533
1749980937.39613,2686
1749980937.408864,2565
1749980937.408962,2265
1749980937.4090524,1906
1749980937.4111319,1592
1749980937.411242,1356
1749980937.4113555,1289
1749980937.4114463,1507
1749980937.411537,1955
1749980937.4116387,2379
1749980937.4117463,2585
1749980937.4118364,2534
1749980937.4119256,2276
1749980937.412015,1920
1749980937.412104,1582
1749980937.4122708,1333
1749980937.413098,1253
1749980937.4131908,1458
1749980937.413281,1903
1749980937.4133747,2349
1749980937.4134846,2580
1749980937.413579,2556
1749980937.4136727,2318
1749980937.4137657,1975
1749980937.4138584,1638
1749980937.4232287,1381
1749980937.4236033,1257
1749980937.4237108,1394
1749980937.4238167,1786
1749980937.4239218,2239
1749980937.4240282,2515
1749980937.424135,2545
1749980937.4242406,2344
1749980937.424347,2011
1749980937.4244442,1655
1749980937.4245253,1372
1749980937.4246035,1217
1749980937.4249935,1325
1749980937.4250758,1717
1749980937.4251814,2210
1749980937.425287,2535
1749980937.425392,2598
1749980937.4254966,2415
1749980937.4256012,2093
1749980937.4257052,1740
1749980937.42581,1450
1749980937.4259145,1256
1749980937.4260187,1289
1749980937.4261234,1610
1749980937.4269872,2090
1749980937.427093,2455
1749980937.4271996,2573
1749980937.4273045,2437
1749980937.4274094,2136
1749980937.427516,1778
1749980937.4276216,1471
1749980937.4277272,1257
1749980937.427832,1256
1749980937.4279363,1557
1749980937.4280422,2052
1749980937.4281473,2461
1749980937.4282537,2617
1749980937.468691,2510
1749980937.4687698,2224
1749980937.4688416,1872
1749980937.4729807,1556
1749980937.473046,1318
1749980937.473119,1256
1749980937.4731913,1494
1749980937.474178,1967
1749980937.474255,2407
1749980937.474328,2608
1749980937.4744003,2540
1749980937.4744713,2277
1749980937.4745429,1935
1749980937.4746146,1612
1749980937.4746876,1358
1749980937.4747589,1255
1749980937.4765258,1453
1749980937.4766343,1922
1749980937.4767067,2405
1749980937.4767787,2649
1749980937.47685,2610
1749980937.47737,2355
1749980937.4774423,2014
1749980937.4775145,1683
1749980937.4775887,1411
1749980937.4776602,1250
1749980937.4777315,1360
1749980937.4778032,1762
1749980937.477875,2249
1749980937.4779465,2545
1749980937.4780192,2571
1749980937.4780905,2361
1749980937.4781625,2034
1749980937.478233,1696
1749980937.478325,1421
1749980937.4783971,1250
1749980937.4784677,1328
1749980937.4785392,1699
1749980937.4786108,2191
1749980937.4786818,2523
1749980937.4787533,2590
1749980937.4788249,2409
1749980937.4788957,2093
1749980937.4789665,1751
1749980937.4790378,1471
1749980937.47911,1285
1749980937.4791842,1320
1749980937.479256,1647
1749980937.479327,2134
1749980937.479399,2502
1749980937.47947,2618
1749980937.4795449,2481
1749980937.4796162,2184
1749980937.4796877,1834
1749980937.4797635,1531
1749980937.47984,1312
1749980937.479915,1294
1749980937.479989,1575
1749980937.4800637,2056
1749980937.480138,2458
1749980937.4802122,2609
1749980937.4802864,2501
1749980937.480357,2220
1749980937.4804156,1877
1749980937.480484,1569
1749980937.480558,1333
1749980937.4806318,1265
1749980937.480706,1492
1749980937.4807808,1957
1749980937.4808557,2396
1749980937.4809313,2599
1749980937.4809954,2536
1749980937.4810688,2279
1749980937.4811428,1939
1749980937.481217,1617
1749980937.481291,1360
1749980937.481365,1245
1749980937.481439,1418
1749980937.4815173,1857
1749980937.4815912,2323
1749980937.5289752,2570
1749980937.5290582,2548
1749980937.531159,2310
1749980937.5885103,1974
1749980937.629007,1644
1749980937.6291683,1379
1749980937.636875,1236
1749980937.6371207,1361
1749980937.637227,1766
1749980937.6373303,2245
1749980937.6374333,2534
1749980937.6375365,2557
1749980937.6376402,2347
1749980937.6377442,2020
1749980937.6378493,1681
1749980937.6379528,1405
1749980937.6380565,1233
1749980937.6381593,1306
1749980937.638261,1672
1749980937.6384428,2165
1749980937.6385465,2502
1749980937.6386483,2575
1749980937.638756,2398
1749980937.6388593,2081
1749980937.6389613,1733
1749980937.639065,1444
1749980937.6391733,1245
1749980937.639292,1267
1749980937.6393988,1588
1749980937.6395013,2080
1749980937.639603,2460
1749980937.6397052,2584
1749980937.6398067,2448
1749980937.6491268,2150
1749980937.649203,1800
1749980937.649274,1499
1749980937.6493447,1281
1749980937.6494145,1258
1749980937.6494844,1532
1749980937.6495543,2015
1749980937.649624,2429
1749980937.649694,2596
1749980937.649765,2497
1749980937.6530657,2215
1749980937.6778672,1865
1749980937.6862178,1554
1749980937.6867146,1318
1749980937.687199,1249
1749980937.6901267,1468
1749980937.6906676,1926
1749980937.6927762,2367
1749980937.7141454,2579
1749980937.7260315,2523
1749980937.7261457,2258
1749980937.7262514,1904
1749980937.7263606,1576
1749980937.726466,1328
1749980937.7265701,1228
1749980937.7266748,1405
1749980937.7267919,1840
1749980937.7268958,2306
1749980937.7269998,2564
1749980937.7271035,2558
1749980937.7272131,2326
1749980937.7273538,1983
1749980937.7274585,1641
1749980937.727562,1371
1749980937.729433,1227
1749980937.729544,1348
1749980937.7296486,1747
1749980937.7297523,2229
1749980937.7298698,2530
1749980937.732447,2568
1749980937.7325647,2365
1749980937.7326677,2035
1749980937.732772,1689
1749980937.732875,1408
1749980937.733115,1232
1749980937.7331963,1301
1749980937.7332735,1664
1749980937.73335,2162
1749980937.7334583,2508
1749980937.7335436,2587
1749980937.7341027,2412
1749980937.7342167,2099
1749980937.7342954,1758
1749980937.7343726,1467
1749980937.7344491,1257
1749980937.734526,1273
1749980937.7346027,1614
1749980937.7346795,2147
1749980937.7347565,2552
1749980937.734833,2661
1749980937.7349088,2493
1749980937.735005,2188
1749980937.736392,1866
1749980937.736644,1585
1749980937.7404544,1342
1749980937.742226,1274
1749980937.742562,1541
1749980937.743144,2072
1749980937.7432501,2535
1749980937.7433527,2700
1749980937.7434545,2565
1749980937.7435563,2275
1749980937.743658,1965
1749980937.7437599,1683
1749980937.7438612,1416
1749980937.743965,1283
1749980937.7440999,1494
1749980937.760855,2026
1749980937.7614243,2548
1749980937.7614982,2761
1749980937.7615705,2641
1749980937.7931607,2344
1749980937.83514,2039
1749980937.835254,1773
1749980937.8430028,1506
1749980937.8430822,1314
1749980937.843155,1433
1749980937.8432317,1910
1749980937.8433037,2460
1749980937.8433754,2734
1749980937.8434467,2665
1749980937.8435187,2382
1749980937.8435898,2076
1749980937.8436615,1807
1749980937.8437333,1545
1749980937.8438046,1325
1749980937.8438768,1380
1749980937.8439484,1810
1749980937.8440194,2378
1749980937.844091,2706
1749980937.8441617,2680
1749980937.844233,2408
1749980937.8443048,2096
1749980937.8443763,1826
1749980937.8444474,1575
1749980937.8445191,1340
1749980937.8445897,1338
1749980937.844661,1711
1749980937.844733,2285
1749980937.8448043,2670
1749980937.8448758,2700
1749980937.844964,2455
1749980937.8450365,2140
1749980937.845638,1862
1749980937.8457139,1612
1749980937.8457859,1362
1749980937.845857,1301
1749980937.8459275,1611
1749980937.8459983,2176
1749980937.8460693,2611
1749980937.8461409,2699
1749980937.846212,2489
1749980937.8462827,2178
1749980937.8463533,1894
1749980937.8464243,1642
1749980937.846499,1383
1749980937.846573,1273
1749980937.8466468,1526
1749980937.84672,2081
1749980937.8467937,2567
1749980937.8468685,2712
1749980937.8469424,2532
1749980937.8470278,2217
1749980937.8471014,1923
1749980937.8471856,1672
1749980937.847259,1412
1749980937.8473322,1256
1749980937.847406,1438
1749980937.847479,1958
1749980937.847553,2480
1749980937.8476267,2688
1749980937.8477006,2557
1749980937.847774,2252
1749980937.8478475,1951
1749980937.847921,1695
1749980937.8479946,1439
1749980937.8480673,1251
1749980937.8481412,1367
1749980937.8482149,1841
1749980937.8483903,2392
1749980937.8484604,2670
1749980937.8545232,2602
1749980937.877486,2316
1749980937.8776333,2002
1749980937.877779,1732
1749980937.8779235,1481
1749980937.878067,1276
1749980937.8782108,1330
1749980937.896936,1733
1749980937.9056165,2269
1749980937.9147463,2589
1749980937.9151747,2583
1749980937.9155967,2339
1749980937.9252052,2030
1749980937.9277205,1740
1749980937.9278839,1474
1749980937.9280467,1247
1749980937.9282,1266
1749980937.92837,1647
1749980937.9285195,2210
1749980937.928674,2583
1749980937.9288125,2615
1749980937.9289742,2380
1749980937.9291193,2070
1749980937.9292798,1786
1749980937.9294276,1530
1749980937.9295816,1284
1749980937.9297457,1235
1749980937.929905,1556
1749980937.930065,2127
1749980937.930154,2568
1749980937.9302268,2661
1749980937.9302983,2453
1749980937.9303703,2143
1749980937.9304807,1855
1749980937.9305534,1596
1749980937.930625,1329
1749980937.9306965,1219
1749980937.9307685,1488
1749980937.93084,2070
1749980937.9309125,2580
1749980937.9309843,2733
1749980937.9310558,2551
1749980937.931127,2235
1749980937.931199,1943
1749980937.9312706,1689
1749980937.9313421,1418
1749980937.9314134,1242
1749980937.9314847,1403
1749980937.9315557,1910
1749980937.9316359,2436
1749980937.9317129,2662
1749980937.931784,2556
1749980937.9318552,2266
1749980937.9319265,1958
1749980937.9319985,1689
1749980937.9320695,1432
1749980937.9321408,1249
1749980937.932212,1349
1749980937.932286,1777
1749980937.9323606,2283
1749980937.9324353,2557
1749980937.9325092,2524
1749980937.932584,2263
1749980937.9326582,1931
1749980937.9327328,1630
1749980937.9328074,1389
1749980937.9328818,1234
1749980937.93295,1320
1749980937.9330096,1693
1749980937.933083,2168
1749980937.9331584,2464
1749980937.9332335,2492
1749980937.933308,2281
1749980937.9333885,1956
1749980937.9334648,1624
1749980937.9335392,1360
1749980937.9336135,1194
1749980937.9336936,1260
1749980937.9337678,1615
1749980937.9338427,2104
1749980937.933918,2443
1749980937.9339929,2518
1749980937.9340684,2346
1749980937.9341433,2037
1749980937.934218,1699
1749980937.9343,1417
1749980937.9343774,1219
1749980937.9344594,1228
1749980937.934536,1535
1749980937.9346108,2027
1749980937.9346855,2418
1749980937.9347594,2550
1749980937.934834,2419
1749980937.9349082,2121
1749980937.9727626,1771
1749980937.9898188,1468
1749980938.046685,1243
1749980938.0905452,1203
1749980938.090964,1461
1749980938.0913713,1942
1749980938.0929174,2369
1749980938.0932508,2550
1749980938.0945086,2463
1749980938.0952466,2189
1749980938.096066,1843
1749980938.096974,1529
1749980938.097346,1285
1749980938.0976787,1198
1749980938.0980027,1403
1749980938.0983522,1862
1749980938.098675,2321
1749980938.0990043,2551
1749980938.0993323,2507
1749980938.0996664,2249
1749980938.1256294,1900
1749980938.169066,1570
1749980938.169182,1316
1749980938.1692996,1199
1749980938.1700723,1359
1749980938.172682,1787
1749980938.1727896,2263
1749980938.1728923,2534
1749980938.1749732,2538
1749980938.1755295,2312
1749980938.1756341,1972
1749980938.1757379,1624
1749980938.1758425,1343
1749980938.1759465,1182
1749980938.1789238,1286
1749980938.17903,1682
1749980938.1791341,2179
1749980938.1792367,2499
1749980938.1793401,2549
1749980938.1794581,2351
1749980938.1795616,2024
1749980938.1796637,1675
1749980938.179766,1389
1749980938.1798682,1203
1749980938.1799707,1258
1749980938.180073,1612
1749980938.1801765,2113
1749980938.1802819,2475
1749980938.1803913,2571
1749980938.1804988,2407
1749980938.1806016,2092
1749980938.180704,1736
1749980938.1808062,1439
1749980938.1809082,1232
1749980938.1810846,1240
1749980938.2267668,1548
1749980938.236589,2044
1749980938.2370737,2446
1749980938.238726,2595
1749980938.2388072,2478
1749980938.238881,2185
1749980938.2389529,1828
1749980938.2390242,1516
1749980938.239095,1289
1749980938.2391658,1250
1749980938.2392375,1505
1749980938.2393098,1978
1749980938.239381,2400
1749980938.2394524,2585
1749980938.2395234,2506
1749980938.2395942,2234
1749980938.2396648,1881
1749980938.2397366,1555
1749980938.2398078,1307
1749980938.2398782,1224
1749980938.2399492,1435
1749980938.2400203,1898
1749980938.2400913,2359
1749980938.2401624,2592
1749980938.240233,2552
1749980938.2403038,2297
1749980938.241904,1949
1749980938.2419732,1617
1749980938.242044,1360
1749980938.2421515,1238
1749980938.2422636,1392
1749980938.2423632,1819
1749980938.2424679,2301
1749980938.242546,2583
1749980938.2426233,2594
1749980938.2427,2368
1749980938.2427778,2027
1749980938.242855,1682
1749980938.242932,1410
1749980938.2430086,1257
1749980938.2430856,1361
1749980938.2431624,1749
1749980938.2432392,2241
1749980938.2433162,2563
1749980938.2433941,2619
1749980938.2434723,2428
1749980938.243549,2100
1749980938.2436256,1744
1749980938.2437022,1451
1749980938.2437794,1263
1749980938.2438562,1317
1749980938.243937,1667
1749980938.246978,2164
1749980938.2476485,2522
1749980938.2477233,2621
1749980938.2477965,2465
1749980938.2478695,2156
1749980938.247941,1802
1749980938.2481978,1502
1749980938.2482917,1292
1749980938.2483523,1296
1749980938.248419,1598
1749980938.248949,2086
1749980938.291683,2481
1749980938.3241549,2627
1749980938.3246677,2513
1749980938.355634,2222
1749980938.3557081,1866
1749980938.3684406,1549
1749980938.376139,1317
1749980938.3762143,1274
1749980938.3762808,1530
1749980938.3763402,2006
1749980938.382403,2433
1749980938.3825102,2619
1749980938.3826437,2542
1749980938.3827503,2273
1749980938.3828533,1925
1749980938.382956,1604
1749980938.3830588,1356
1749980938.3831613,1265
1749980938.3832636,1466
1749980938.3833656,1922
1749980938.3834672,2384
1749980938.3835697,2620
1749980938.383672,2585
1749980938.3839955,2334
1749980938.3840618,1989
1749980938.3841274,1659
1749980938.3841956,1401
1749980938.3842611,1276
1749980938.3843195,1423
1749980938.3844774,1843
1749980938.3845444,2320
1749980938.3846107,2599
1749980938.384677,2609
1749980938.3847425,2386
1749980938.3848083,2048
1749980938.3848698,1705
1749980938.384984,1433
1749980938.3850513,1276
1749980938.3851178,1375
1749980938.385185,1759
1749980938.3852513,2249
1749980938.385318,2571
1749980938.385385,2632
1749980938.3854518,2446
1749980938.3855178,2123
1749980938.3855846,1770
1749980938.38565,1478
1749980938.3857167,1290
1749980938.3857834,1341
1749980938.385851,1688
1749980938.3859172,2182
1749980938.3859859,2539
1749980938.3860538,2636
1749980938.386127,2480
1749980938.3861935,2172
1749980938.3862596,1820
1749980938.3863263,1518
1749980938.3863943,1302
1749980938.3864598,1298
1749980938.3865252,1596
1749980938.3865929,2087
1749980938.386658,2487
1749980938.3867261,2634
1749980938.3867912,2516
1749980938.387647,2225
1749980938.4046419,1871
1749980938.4047198,1559
1749980938.417585,1326
1749980938.4641736,1273
1749980938.464558,1518
1749980938.5489013,1993
1749980938.5859556,2427
1749980938.600967,2623
1749980938.6131253,2547
1749980938.613254,2271
1749980938.6133268,1915
1749980938.6133945,1590
1749980938.6187203,1347
1749980938.6190257,1262
1749980938.6265352,1464
1749980938.626622,1917
1749980938.6270988,2380
1749980938.6272178,2623
1749980938.6272955,2595
1749980938.6273715,2344
1749980938.6274462,1990
1749980938.6275206,1647
1749980938.6275952,1380
1749980938.6276727,1251
1749980938.6277468,1399
1749980938.627821,1820
1749980938.6278949,2301
1749980938.6279685,2586
1749980938.628042,2601
1749980938.6281157,2379
1749980938.6281898,2038
1749980938.6282632,1691
1749980938.6283479,1412
1749980938.628409,1247
1749980938.6284828,1337
1749980938.6285567,1719
1749980938.6286302,2213
1749980938.6287038,2541
1749980938.628777,2601
1749980938.6288505,2409
1749980938.6289232,2082
1749980938.6289928,1731
1749980938.6290627,1444
1749980938.6291323,1253
1749980938.6292017,1293
1749980938.6292706,1631
1749980938.629341,2131
1749980938.6294105,2507
1749980938.62948,2621
1749980938.629549,2471
1749980938.6296186,2160
1749980938.6296935,1806
1749980938.629763,1509
1749980938.6298323,1301
1749980938.6299016,1294
1749980938.6301098,1582
1749980938.6933413,2067
1749980938.7055247,2470
1749980938.7057524,2625
1749980938.706396,2515
1749980938.7066798,2225
1749980938.7069428,1870
1749980938.707411,1558
1749980938.7077482,1326
1749980938.708032,1271
1749980938.708338,1508
1749980938.7138364,1974
1749980938.7735696,2404
1749980938.7741408,2597
1749980938.7742145,2523
1749980938.774286,2252
1749980938.774358,1901
1749980938.774429,1583
1749980938.7745013,1341
1749980938.7745717,1249
1749980938.7746418,1440
1749980938.7747118,1884
1749980938.7747822,2343
1749980938.7748516,2583
1749980938.774922,2555
1749980938.7750056,2309
1749980938.7750757,1966
1749980938.7751508,1636
1749980938.7752206,1377
1749980938.7752898,1245
1749980938.7753603,1381
1749980938.7754295,1794
1749980938.7754996,2274
1749980938.775569,2561
1749980938.7756386,2578
1749980938.7757077,2360
1749980938.775777,2031
1749980938.7758465,1699
1749980938.7759159,1429
1749980938.7759852,1261
1749980938.7760546,1348
1749980938.7761238,1738
1749980938.7761934,2250
1749980938.7762623,2583
1749980938.7763314,2630
1749980938.776391,2428
1749980938.776458,2115
1749980938.7765276,1789
1749980938.7765973,1503
1749980938.7766664,1282
1749980938.7767365,1306
1749980938.7768059,1685
1749980938.776875,2259
1749980938.7769392,2667
1749980938.7769978,2742
1749980938.7770674,2536
1749980938.7771435,2230
1749980938.777213,1933
1749980938.777283,1660
1749980938.7773535,1394
1749980938.777424,1307
1749980938.7774932,1587
1749980938.7775629,2146
1749980938.7776322,2613
1749980938.7777019,2748
1749980938.777771,2575
1749980938.7778401,2277
1749980938.7779095,1989
1749980938.7779794,1731
1749980938.778049,1461
1749980938.7781186,1315
1749980938.7781878,1518
1749980938.778257,2045
1749980938.7783365,2549
1749980938.7784076,2738
1749980938.7784784,2601
1749980938.7785485,2303
1749980938.7786252,2006
1749980938.7787006,1749
1749980938.7787719,1488
1749980938.7788482,1315
1749980938.778921,1465
1749980938.7790048,1965
1749980938.779088,2506
1749980938.7791598,2749
1749980938.7792323,2646
1749980938.7793057,2348
1749980938.779377,2044
1749980938.779449,1790
1749980938.7795198,1541
1749980938.7795901,1339
1749980938.7796621,1418
1749980938.7797332,1861
1749980938.7798083,2418
1749980938.7798822,2723
1749980938.7799542,2676
1749980938.7800267,2398
1749980938.7800987,2089
1749980938.7801697,1826
1749980938.7802415,1580
1749980938.7803164,1354
1749980938.7803884,1370
1749980938.7804499,1756
1749980938.7805097,2321
1749980938.7805781,2683
1749980938.7806513,2696
1749980938.7807255,2445
1749980938.7808013,2134
1749980938.7808728,1862
1749980938.7809443,1615
1749980938.781012,1373
1749980938.781075,1333
1749980938.7811456,1666
1749980938.7812169,2233
1749980938.7812884,2647
1749980938.7813592,2709
1749980938.7814302,2482
1749980938.7815006,2172
1749980938.7815733,1901
1749980938.8540478,1663
1749980938.8988657,1414
1749980938.9405506,1318
1749980939.0143275,1584
1749980939.0147738,2139
1749980939.0149305,2607
1749980939.015397,2733
1749980939.0155592,2544
1749980939.0185237,2235
1749980939.0601423,1954
1749980939.061939,1714
1749980939.1002107,1461
1749980939.1004126,1318
1749980939.1345525,1517
1749980939.1545765,2044
1749980939.1546526,2556
1749980939.1550417,2745
1749980939.1551714,2600
1749980939.1552486,2294
1749980939.1553226,2000
1749980939.1553957,1753
1749980939.1554694,1499
1749980939.1555424,1320
1749980939.1556144,1457
1749980939.1556873,1948
1749980939.15576,2489
1749980939.1558323,2737
1749980939.1559052,2641
1749980939.1559906,2353
1749980939.1560633,2059
1749980939.1561353,1805
1749980939.156207,1542
1749980939.1562796,1322
1749980939.1563454,1399
1749980939.1564047,1860
1749980939.1564772,2437
1749980939.1565585,2740
1749980939.1566308,2675
1749980939.1567028,2389
1749980939.1567755,2098
1749980939.1568475,1857
1749980939.1569195,1604
1749980939.1569912,1343
1749980939.1570692,1331
1749980939.1571412,1732
1749980939.1572046,2342
1749980939.1572633,2731
1749980939.1573224,2728
1749980939.1573927,2448
1749980939.1574655,2132
1749980939.1575377,1877
1749980939.1576104,1640
1749980939.1576827,1378
1749980939.1577554,1305
1749980939.157828,1625
1749980939.1579015,2213
1749980939.1579745,2660
1749980939.158047,2740
1749980939.1581194,2508
1749980939.1581917,2179
1749980939.158264,1895
1749980939.158346,1666
1749980939.1584191,1432
1749980939.1584969,1313
1749980939.15857,1491
1749980939.1586432,1933
1749980939.1587174,2346
1749980939.1587915,2512
1749980939.1588638,2405
1749980939.1589367,2119
1749980939.1590095,1782
1749980939.1590824,1498
1749980939.1591554,1293
1749980939.159229,1245
1749980939.1593025,1464
1749980939.1593757,1896
1749980939.159448,2298
1749980939.1595209,2479
1749980939.159594,2416
1749980939.1596673,2159
1749980939.1597362,1811
1749980939.1598077,1488
1749980939.15988,1257
1749980939.1599522,1187
1749980939.1600246,1391
1749980939.160099,1827
1749980939.1601703,2266
1749980939.1602423,2490
1749980939.1603115,2465
1749980939.16037,2234
1749980939.160437,1904
1749980939.1605184,1578
1749980939.160591,1323
1749980939.1606634,1188
1749980939.1607356,1304
1749980939.1608086,1682
1749980939.1608808,2137
1749980939.1609428,2424
1749980939.161011,2467
1749980939.1610832,2278
1749980939.161156,1953
1749980939.1612287,1601
1749980939.161301,1317
1749980939.1613734,1152
1749980939.1614463,1237
1749980939.1615207,1605
1749980939.1615953,2091
1749980939.1812174,2424
1749980939.18191,2503
1749980939.1827447,2337
1749980939.183524,2025
1749980939.1844118,1675
1749980939.2062688,1386
1749980939.2065163,1192
1749980939.206619,1218
1749980939.2066984,1533
1749980939.2150326,2017
1749980939.229348,2396
1749980939.233141,2528
1749980939.2332478,2402
1749980939.2333229,2105
1749980939.2333965,1750
1749980939.2334702,1447
1749980939.2335434,1233
1749980939.2336166,1210
1749980939.2336898,1468
1749980939.2337627,1927
1749980939.2338357,2328
1749980939.2339087,2505
1749980939.2339818,2427
1749980939.2340548,2156
1749980939.2341275,1797
1749980939.2342005,1472
1749980939.2342732,1239
1749980939.234346,1187
1749980939.2349124,1421
1749980939.2349973,1881
1749980939.2350702,2315
1749980939.2351427,2526
1749980939.235216,2482
1749980939.2352884,2234
1749980939.2353601,1889
1749980939.2354324,1557
1749980939.2355046,1304
1749980939.2512019,1200
1749980939.3547063,1377
1749980939.3697896,1811
1749980939.3701851,2274
1749980939.3705487,2530
1749980939.3709898,2527
1749980939.371411,2301
1749980939.4058013,1966
1749980939.4061363,1627
1749980939.406463,1356
1749980939.4067876,1209
1749980939.4071145,1329
1749980939.4074419,1729
1749980939.4293878,2215
1749980939.4302387,2521
1749980939.4303217,2567
1749980939.4304004,2375
1749980939.4304788,2054
1749980939.4307299,1710
1749980939.4731007,1426
1749980939.5365922,1245
1749980939.5487127,1308
1749980939.5501559,1665
1749980939.5502274,2156
1749980939.5502954,2498
1749980939.5503662,2580
1749980939.5504405,2414
1749980939.5505068,2106
1749980939.550572,1761
1749980939.5506382,1471
1749980939.5507185,1267
1749980939.5507853,1280
1749980939.5508518,1593
1749980939.5509176,2087
1749980939.550984,2475
1749980939.551051,2605
1749980939.5511167,2471
1749980939.551183,2170
1749980939.5512497,1817
1749980939.5513163,1512
1749980939.5513825,1288
1749980939.5514486,1252
1749980939.5515146,1510
1749980939.551581,1986
1749980939.5516584,2405
1749980939.5517373,2582
1749980939.551803,2494
1749980939.5518696,2217
1749980939.5519354,1868
1749980939.5520015,1556
1749980939.552067,1318
1749980939.552133,1241
1749980939.5521986,1452
1749980939.5522647,1910
1749980939.5523305,2360
1749980939.5523965,2583
1749980939.5524623,2536
1749980939.5525284,2281
1749980939.552594,1938
1749980939.5526597,1616
1749980939.5527265,1367
1749980939.5527916,1254
1749980939.552858,1415
1749980939.5529253,1841
1749980939.5529912,2310
1749980939.553057,2574
1749980939.5531225,2574
1749980939.5531886,2349
1749980939.5532541,2016
1749980939.5533202,1681
1749980939.5533855,1412
1749980939.5534518,1259
1749980939.5535173,1368
1749980939.553583,1763
1749980939.5536485,2250
1749980939.5537157,2559
1749980939.5537813,2603
1749980939.5538466,2405
1749980939.553912,2079
1749980939.553978,1732
1749980939.5540433,1448
1749980939.554109,1268
1749980939.5541747,1328
1749980939.5542414,1683
1749980939.5543072,2175
1749980939.5676327,2520
1749980939.61404,2605
1749980939.614174,2439
1749980939.6142848,2130
1749980939.6143937,1780
1749980939.6145022,1483
1749980939.614711,1271
1749980939.6150146,1277
1749980939.61513,1586
1749980939.6152391,2076
1749980939.6153479,2461
1749980939.6154695,2591
1749980939.6155784,2466
1749980939.6156862,2181
1749980939.6157942,1836
1749980939.6159146,1525
1749980939.616024,1285
1749980939.6190116,1239
1749980939.6191404,1504
1749980939.6192505,1999
1749980939.619358,2432
1749980939.6194658,2611
1749980939.6195858,2520
1749980939.6237924,2245
1749980939.6239188,1905
1749980939.6240373,1598
1749980939.6241553,1361
1749980939.6242726,1276
1749980939.6244967,1476
1749980939.6246142,1925
1749980939.624732,2374
1749980939.6248195,2600
1749980939.6249034,2562
1749980939.630317,2314
1749980939.6305006,1975
1749980939.6306467,1651
1749980939.6950688,1396
1749980939.6954486,1275
1749980939.6957853,1429
1749980939.6961195,1855
1749980939.6964478,2329
1749980939.6967802,2597
1749980939.6971073,2596
1749980939.6974375,2366
1749980939.6977708,2029
1749980939.6981032,1695
1749980939.6984737,1428
1749980939.698806,1275
1749980939.6991382,1380
1749980939.6994717,1771
1749980939.6998148,2259
1749980939.7001488,2569
1749980939.7004704,2612
1749980939.700804,2414
1749980939.7248106,2093
1749980939.727701,1752
1749980939.7278464,1471
1749980939.727921,1285
1749980939.7279935,1336
1749980939.7280653,1686
1749980939.7281368,2185
1749980939.7282078,2544
1749980939.72829,2637
1749980939.728356,2472
1749980939.7284186,2160
1749980939.7284896,1813
1749980939.7285607,1525
1749980939.7288263,1322
1749980939.7288976,1316
1749980939.728959,1596
1749980939.7290301,2061
1749980939.7291007,2443
1749980939.729172,2590
1749980939.7292428,2479
1749980939.7293134,2189
1749980939.7293842,1829
1749980939.729455,1516
1749980939.729526,1294
1749980939.729597,1266
1749980939.72967,1532
1749980939.729741,2013
1749980939.7298124,2439
1749980939.729883,2623
1749980939.7299535,2541
1749980939.7300243,2266
1749980939.7300956,1914
1749980939.7301667,1596
1749980939.7302372,1356
1749980939.7303085,1271
1749980939.7303789,1470
1749980939.7304497,1918
1749980939.73052,2373
1749980939.7305918,2610
1749980939.7306728,2578
1749980939.7307448,2329
1749980939.7308166,1982
1749980939.7308874,1653
1749980939.7309623,1400
1749980939.731033,1278
1749980939.731104,1418
1749980939.7311752,1816
1749980939.7312462,2271
1749980939.731318,2544
1749980939.7313895,2568
1749980939.7314599,2364
1749980939.731531,2033
1749980939.7316017,1686
1749980939.7401206,1409
1749980939.776054,1258
1749980939.7761936,1372
1749980939.7779608,1770
1749980939.7796762,2260
1749980939.7818666,2571
1749980939.7822871,2617
1749980939.782392,2422
1749980939.7850974,2102
1749980939.7852075,1762
1749980939.7853458,1484
1749980939.7854495,1300
1749980939.78597,1347
1749980939.7862093,1688
1749980939.786553,2180
1749980939.7866974,2538
1749980939.7868013,2634
1749980939.7869048,2474
1749980939.787008,2166
1749980939.7871099,1819
1749980939.7872126,1526
1749980939.787764,1316
1749980939.7878854,1309
1749980939.7879882,1598
1749980939.788091,2083
1749980939.7881935,2484
1749980939.8446476,2636
1749980939.8447652,2520
1749980939.8448656,2225
1749980939.8494346,1868
1749980939.8495173,1560
1749980939.902981,1337
1749980939.9215448,1289
1749980939.921676,1523
1749980939.9218109,1974
1749980939.9219377,2390
1749980939.92205,2584
1749980939.9221597,2523
1749980939.9222689,2259
1749980939.922424,1904
1749980939.9225333,1574
1749980939.9226432,1331
1749980939.9227514,1258
1749980939.9228919,1473
1749980939.923,1929
1749980939.923108,2381
1749980939.9232163,2608
1749980939.923365,2572
1749980939.9234736,2326
1749980939.9235816,1981
1749980939.923724,1648
1749980939.923836,1388
1749980939.9239454,1262
1749980939.924243,1408
1749980939.9243793,1822
1749980939.924529,2295
1749980939.9246788,2579
1749980939.9248273,2604
1749980939.9249883,2395
1749980939.9252427,2062
1749980939.9612591,1716
1749980940.0051982,1440
1749980940.0082688,1282
1749980940.0305963,1374
1749980940.059148,1739
1749980940.1140788,2208
1749980940.1460636,2522
1749980940.1471965,2592
1749980940.1472673,2422
1749980940.1473362,2107
1749980940.1474044,1751
1749980940.2195337,1458
1749980940.2260041,1277
1749980940.2261152,1342
1749980940.2262168,1700
1749980940.2286444,2200
1749980940.2287269,2559
1749980940.2288413,2656
1749980940.2289176,2503
1749980940.228994,2198
1749980940.2290688,1846
1749980940.3079908,1543
1749980940.3628235,1324
1749980940.3631856,1312
1749980940.3633006,1600
1749980940.3807747,2085
1749980940.382731,2488
1749980940.3828056,2644
1749980940.4293694,2537
1749980940.442233,2251
1749980940.5051172,1897
1749980940.505305,1587
1749980940.5054023,1360
1749980940.5054924,1307
1749980940.5056365,1537
1749980940.5057116,1986
1749980940.505787,2402
1749980940.505863,2600
1749980940.5059376,2542
1749980940.5060098,2280
1749980940.5060847,1922
1749980940.5061593,1586
1749980940.5062337,1340
1749980940.5063083,1263
1749980940.5063832,1475
1749980940.5064552,1931
1749980940.50653,2390
1749980940.5066051,2627
1749980940.5066798,2596
1749980940.5067549,2344
1749980940.5068295,1991
1749980940.5069013,1652
1749980940.5172503,1393
1749980940.51736,1267
1749980940.517462,1406
1749980940.5175648,1812
1749980940.517667,2285
1749980940.5177698,2575
1749980940.5178716,2608
1749980940.517974,2401
1749980940.5180752,2063
1749980940.519168,1706
1749980940.5192735,1416
1749980940.5193763,1250
1749980940.5640023,1350
1749980940.6041641,1744
1749980940.6044621,2247
1749980940.604623,2576
1749980940.6047616,2632
1749980940.6359577,2440
1749980940.686976,2119
1749980940.6871216,1772
1749980940.687226,1483
1749980940.7168818,1283
1749980940.717143,1312
1749980940.7172484,1646
1749980940.7174659,2146
1749980940.7175467,2520
1749980940.7176304,2630
1749980940.7177057,2478
1749980940.7177773,2171
1749980940.7387543,1819
1749980940.7553098,1520
1749980940.80406,1305
1749980940.8325722,1294
1749980940.8327124,1583
1749980940.832777,2071
1749980940.8328397,2479
1749980940.832903,2637
1749980940.8329656,2530
1749980940.8330317,2238
1749980940.8331323,1876
1749980940.833209,1556
1749980940.8851678,1327
1749980940.8852706,1280
1749980940.8853407,1519
1749980940.8854117,1978
1749980940.885481,2403
1749980940.885547,2604
1749980940.885616,2547
1749980940.8856847,2282
1749980940.8857517,1920
1749980940.8858209,1583
1749980940.8858886,1337
1749980940.8859553,1255
1749980940.8860235,1452
1749980940.8860939,1887
1749980940.8861609,2335
1749980940.8862264,2579
1749980940.8862956,2569
1749980940.8863637,2336
1749980940.8864298,1987
1749980940.8864996,1638
1749980940.8865688,1369
1749980940.886643,1241
1749980940.8867135,1386
1749980940.8867824,1798
1749980940.8868487,2272
1749980940.8871973,2559
1749980940.888181,2586
1749980940.8956287,2375
1749980940.8957093,2038
1749980940.8957808,1687
1749980940.8958516,1410
1749980940.8959215,1254
1749980940.8959918,1352
1749980940.8960612,1732
1749980940.8961313,2223
1749980940.8962016,2555
1749980940.8962715,2629
1749980940.8963346,2453
1749980940.896868,2130
1749980940.899504,1772
1749980940.9003408,1479
1749980940.9004667,1288
1749980940.900576,1323
1749980940.9009614,1644
1749980940.9012446,2121
1749980940.90176,2483
1749980940.901965,2605
1749980940.9025598,2474
1749980940.9028413,2171
1749980940.903099,1805
1749980940.903808,1488
1749980940.9088137,1272
1749980940.9089239,1274
1749980940.909298,1578
1749980940.9094028,2072
1749980940.9100416,2477
1749980940.9104738,2631
1749980940.9108217,2521
1749980940.911582,2229
1749980940.912108,1868
1749980940.9144697,1545
1749980940.9145463,1307
1749980940.914617,1255
1749980940.914687,1502
1749980940.9147568,1982
1749980940.914827,2425
1749980940.9148972,2630
1749980940.9149754,2566
1749980940.9150462,2300
1749980940.9151158,1947
1749980940.9151862,1612
1749980940.915256,1348
1749980940.9153264,1237
1749980940.9153965,1420
1749980940.915466,1870
1749980940.9155364,2343
1749980940.9161923,2597
1749980940.916274,2578
1749980940.9163527,2336
1749980940.9164312,1989
1749980940.9165094,1648
1749980940.9165876,1380
1749980940.916667,1242
1749980940.9167452,1379
1749980940.9168243,1796
1749980940.9169009,2280
1749980940.91696,2570
1749980940.9170334,2591
1749980940.9171112,2377
1749980940.9171898,2042
1749980940.9172678,1691
1749980940.9173934,1404
1749980940.9174724,1230
1749980940.9175503,1314
1749980940.9176278,1694
1749980940.9177058,2193
1749980940.9177835,2531
1749980940.9178607,2604
1749980940.9179392,2425
1749980940.9180157,2105
1749980940.9180944,1752
1749980940.918175,1459
1749980940.9182525,1262
1749980940.918346,1286
1749980940.918424,1599
1749980940.9185011,2074
1749980940.9185784,2440
1749980940.9186554,2565
1749980940.918736,2436
1749980940.918815,2135
1749980940.918893,1773
1749980940.91897,1461
1749980940.9190478,1250
1749980940.9191253,1257
1749980940.919207,1564
1749980940.9192889,2062
1749980940.9193754,2470
1749980940.919455,2621
1749980940.9195323,2508
1749980940.91961,2218
1749980940.9196877,1863
1749980940.919765,1546
1749980940.9198425,1307
1749980940.9360912,1243
1749980940.9477851,1475
1749980940.9773924,1943
1749980940.9801295,2385
1749980940.9802282,2593
1749980940.98032,2533
1749980940.9804115,2268
1749980940.980546,1915
1749980940.9806378,1584
1749980940.9807296,1328
1749980940.9808204,1224
1749980940.980912,1403
1749980940.9810026,1840
1749980940.9811509,2302
1749980940.9812496,2558
1749980940.981341,2550
1749980940.981432,2316
1749980940.9815233,1968
1749980940.9816253,1619
1749980940.9817183,1345
1749980940.9818094,1212
1749980940.9819002,1356
1749980940.9819918,1775
1749980940.9820824,2262
1749980940.9821672,2557
1749980940.9822578,2588
1749980940.9823492,2383
1749980940.9824402,2054
1749980940.9825304,1707
1749980940.9826212,1421
1749980940.9827123,1246
1749980940.9828029,1325
1749980940.9828937,1699
1749980940.982985,2198
1749980940.9830854,2539
1749980940.9831758,2613
1749980940.983267,2433
1749980940.9833577,2111
1749980940.9834487,1757
1749980940.983539,1464
1749980940.9836295,1267
1749980940.9837198,1297
1749980940.983811,1625
1749980940.9839017,2122
1749980940.98401,2501
1749980940.984148,2621
1749980940.9842854,2476
1749980940.984423,2168
1749980940.9845605,1808
1749980940.9846978,1499
1749980940.9848356,1278
1749980940.9903045,1261
1749980940.9904478,1545
1749980940.9905825,2036
1749980940.9911897,2453
1749980940.9916966,2623
1749980940.9918368,2525
1749980941.0058372,2241
1749980941.0063114,1882
1749980941.0067573,1556
1749980941.0071955,1312
1749980941.0075426,1249
1749980941.0078838,1485
1749980941.0082479,1957
1749980941.008732,2401
1749980941.009209,2610
1749980941.0095963,2552
1749980941.0803742,2290
1749980941.0805147,1937
1749980941.080589,1601
1749980941.0806782,1341
1749980941.0807846,1237
1749980941.0808601,1421
1749980941.0809257,1867
1749980941.0809848,2336
1749980941.0810566,2593
1749980941.0811281,2585
1749980941.0811994,2354
1749980941.0812724,2011
1749980941.0813515,1668
1749980941.0814214,1400
1749980941.081493,1266
1749980941.0815644,1403
1749980941.0816405,1814
1749980941.0817122,2297
1749980941.0817833,2594
1749980941.0818546,2628
1749980941.0819259,2419
1749980941.0819972,2078
1749980941.0820687,1720
1749980941.08214,1436
1749980941.0822053,1271
1749980941.0822701,1352
1749980941.0823414,1710
1749980941.0824122,2187
1749980941.0824835,2521
1749980941.0825543,2609
1749980941.0826256,2446
1749980941.0826962,2122
1749980941.0827668,1748
1749980941.0828378,1436
1749980941.0829089,1241
1749980941.08298,1289
1749980941.0830507,1634
1749980941.08312,2134
1749980941.0831914,2509
1749980941.0832617,2629
1749980941.0833364,2491
1749980941.083402,2186
1749980941.0834677,1821
1749980941.0835333,1505
1749980941.0835984,1282
1749980941.0836635,1267
1749980941.0837283,1551
1749980941.0837946,2037
1749980941.0838597,2450
1749980941.0839252,2622
1749980941.0839896,2531
1749980941.0840547,2249
1749980941.0841205,1884
1749980941.0841901,1553
1749980941.0842612,1311
1749980941.0843265,1250
1749980941.08439,1479
1749980941.0844548,1933
1749980941.0845256,2361
1749980941.0845962,2572
1749980941.084667,2530
1749980941.0847373,2280
1749980941.0848079,1924
1749980941.0848787,1575
1749980941.0849543,1311
1749980941.0903294,1218
1749980941.0904064,1425
1749980941.0904791,1889
1749980941.0905511,2364
1749980941.0906227,2614
1749980941.090694,2596
1749980941.0907655,2360
1749980941.0908368,2023
1749980941.090908,1686
1749980941.0909796,1415
1749980941.091051,1268
1749980941.0911224,1392
1749980941.0912015,1803
1749980941.0912664,2299
1749980941.0913355,2610
1749980941.0914068,2647
1749980941.091478,2436
1749980941.091549,2096
1749980941.0916302,1737
1749980941.0917017,1444
1749980941.091773,1263
1749980941.0918412,1338
1749980941.091912,1714
1749980941.0919828,2221
1749980941.0920537,2571
1749980941.0921247,2650
1749980941.092195,2470
1749980941.0922658,2148
1749980941.0923285,1793
1749980941.0923913,1496
1749980941.0924625,1291
1749980941.0925338,1310
1749980941.0926046,1631
1749980941.0926752,2129
1749980941.0927465,2512
1749980941.0928173,2636
1749980941.0928888,2496
1749980941.0929477,2191
1749980941.0930183,1835
1749980941.0930889,1527
1749980941.0931656,1302
1749980941.0932367,1276
1749980941.093308,1552
1749980941.0933788,2043
1749980941.0934505,2469
1749980941.0935218,2644
1749980941.093593,2546
1749980941.0936635,2258
1749980941.0937345,1899
1749980941.093805,1577
1749980941.0938756,1336
1749980941.0939467,1270
1749980941.0940173,1501
1749980941.094088,1974
1749980941.094159,2426
1749980941.0942297,2642
1749980941.0943007,2587
1749980941.0943716,2325
1749980941.094443,1975
1749980941.1184347,1642
1749980941.1185336,1382
1749980941.118607,1269
1749980941.1186917,1443
1749980941.1187637,1884
1749980941.119026,2358
1749980941.1190977,2618
1749980941.1191697,2605
1749980941.1192417,2367
1749980941.1193147,2022
1749980941.1193876,1680
1749980941.1194592,1412
1749980941.1195304,1268
1749980941.1196015,1391
1749980941.1196725,1796
1749980941.1197438,2285
1749980941.1198149,2592
1749980941.1198864,2632
1749980941.1199572,2426
1749980941.1200283,2091
1749980941.1201,1737
1749980941.1201718,1452
1749980941.1202428,1279
1749980941.1203122,1353
1749980941.120371,1717
1749980941.1204429,2208
1749980941.1205144,2548
1749980941.1205854,2626
1749980941.12066,2453
1749980941.1207316,2133
1749980941.1208029,1780
1749980941.120874,1486
1749980941.1267097,1284
1749980941.1674016,1301
1749980941.1674786,1617
1749980941.1675496,2110
1749980941.177173,2493
1749980941.213327,2616
1749980941.2174728,2474
1749980941.2176838,2170
1749980941.217884,1821
1749980941.218084,1521
1749980941.2182996,1297
1749980941.2185311,1260
1749980941.2187324,1530
1749980941.2234805,2027
1749980941.2235632,2458
1749980941.22364,2623
1749980941.2511845,2502
1749980941.251264,2201
1749980941.2513363,1858
1749980941.2514076,1568
1749980941.2514794,1344
1749980941.2515507,1261
1749980941.251639,1464
1749980941.2517092,1930
1749980941.25178,2402
1749980941.251851,2639
1749980941.2519224,2587
1749980941.251994,2312
1749980941.2520652,1952
1749980941.2521367,1624
1749980941.2522078,1371
1749980941.2522793,1252
1749980941.2523403,1410
1749980941.2524097,1840
1749980941.2524805,2315
1749980941.2525473,2582
1749980941.252617,2578
1749980941.252688,2345
1749980941.252759,2007
1749980941.2528298,1673
1749980941.252898,1408
1749980941.252957,1261
1749980941.2530282,1380
1749980941.253099,1785
1749980941.2531703,2279
1749980941.2532413,2589
1749980941.2533116,2627
1749980941.2533827,2421
1749980941.2534537,2093
1749980941.2535253,1752
1749980941.253596,1473
1749980941.253674,1291
1749980941.2537463,1350
1749980941.2538173,1708
1749980941.2538886,2209
1749980941.25396,2562
1749980941.2540314,2645
1749980941.2541025,2469
1749980941.254174,2150
1749980941.254245,1799
1749980941.2543163,1506
1749980941.2543929,1300
1749980941.2544641,1310
1749980941.2545354,1625
1749980941.2546065,2125
1749980941.254678,2517
1749980941.2547495,2648
1749980941.2548203,2512
1749980941.2548916,2209
1749980941.254978,1856
1749980941.2550542,1550
1749980941.2551286,1323
1749980941.255206,1283
1749980941.2552805,1543
1749980941.2553542,2022
1749980941.2554283,2445
1749980941.2555022,2624
1749980941.2555764,2534
1749980941.25565,2251
1749980941.2557242,1892
1749980941.2557986,1571
1749980941.2558725,1334
1749980941.2559476,1264
1749980941.2560225,1479
1749980941.2560973,1929
1749980941.256171,2367
1749980941.2562447,2588
1749980941.2563257,2550
1749980941.2563953,2300
1749980941.2564697,1949
1749980941.256544,1613
1749980941.2566183,1359
1749980941.2566922,1255
1749980941.2567658,1425
1749980941.2568395,1845
1749980941.2569137,2297
1749980941.2569876,2554
1749980941.257061,2560
1749980941.2571354,2341
1749980941.257209,2000
1749980941.2572832,1648
1749980941.2573576,1371
1749980941.257432,1231
1749980941.2575054,1365
1749980941.2575796,1776
1749980941.2576535,2263
1749980941.2577274,2565
1749980941.2578015,2607
1749980941.2578754,2412
1749980941.257949,2089
1749980941.30127,1741
1749980941.3100567,1454
1749980941.340486,1272
1749980941.345288,1334
1749980941.345409,1690
1749980941.3455148,2181
1749980941.3456202,2530
1749980941.3457584,2620
1749980941.3458872,2459
1749980941.3581164,2144
1749980941.3682308,1785
1749980941.3684788,1482
1749980941.3685837,1276
1749980941.3686872,1286
1749980941.36879,1587
1749980941.3689609,2062
1749980941.369065,2440
1749980941.3691669,2581
1749980941.36927,2467
1749980941.3693528,2172
1749980941.3694277,1807
1749980941.3695037,1490
1749980941.369582,1272
1749980941.3696597,1256
1749980941.3697352,1529
1749980941.3698094,2000
1749980941.369884,2408
1749980941.3699589,2584
1749980941.3700335,2509
1749980941.3701081,2242
1749980941.3701835,1887
1749980941.370258,1557
1749980941.370341,1311
1749980941.3704157,1242
1749980941.3704898,1469
1749980941.3705645,1937
1749980941.370639,2388
1749980941.370713,2605
1749980941.3707871,2555
1749980941.3708618,2301
1749980941.370936,1958
1749980941.37101,1631
1749980941.3710837,1372
1749980941.3711586,1248
1749980941.3712325,1403
1749980941.3713064,1835
1749980941.371381,2315
1749980941.3714557,2588
1749980941.37153,2587
1749980941.3716948,2353
1749980941.3721552,2012
1749980941.372307,1672
1749980941.372379,1402
1749980941.3724532,1246
1749980941.3740237,1351
1749980941.3741186,1744
1749980941.3742049,2235
1749980941.374296,2549
1749980941.3743787,2595
1749980941.3744636,2393
1749980941.3745482,2063
1749980941.3746326,1713
1749980941.3747206,1429
1749980941.374807,1246
1749980941.3748875,1304
1749980941.3749883,1660
1749980941.3750725,2162
1749980941.375155,2521
1749980941.3752384,2615
1749980941.3753228,2452
1749980941.3754065,2140
1749980941.375489,1790
1749980941.3755662,1495
1749980941.3756444,1288
1749980941.3757231,1298
1749980941.3758004,1613
1749980941.3758783,2115
1749980941.375956,2510
1749980941.3760343,2641
1749980941.376112,2506
1749980941.3761892,2206
1749980941.3762758,1855
1749980941.3763463,1546
1749980941.3764083,1311
1749980941.3764853,1264
1749980941.376562,1524
1749980941.3766398,2016
1749980941.376717,2455
1749980941.3767939,2640
1749980941.3768709,2549
1749980941.376936,2269
1749980941.377006,1922
1749980941.3770835,1608
1749980941.377161,1359
1749980941.3772385,1265
1749980941.3773189,1471
1749980941.3859668,1942
1749980941.3929052,2413
1749980941.3935065,2642
1749980941.393692,2587
1749980941.3938122,2322
1749980941.393886,1978
1749980941.3939621,1651
1749980941.4017863,1382
1749980941.4019136,1244
1749980941.4020174,1406
1749980941.4046535,1870
1749980941.4398232,2389
1749980941.4401667,2671
1749980941.4404995,2649
1749980941.4408314,2398
1749980941.4411643,2068
1749980941.4414978,1756
1749980941.441848,1494
1749980941.4421787,1315
1749980941.4425094,1387
1749980941.4428384,1769
1749980941.4431717,2277
1749980941.4435043,2609
1749980941.4438365,2655
1749980941.44417,2446
1749980941.4445004,2119
1749980941.4448318,1785
1749980941.4451852,1509
1749980941.4455142,1314
1749980941.445838,1353
1749980941.4461598,1701
1749980941.4464831,2208
1749980941.4468055,2571
1749980941.4471319,2653
1749980941.4474528,2472
1749980941.4477735,2150
1749980941.4480958,1805
1749980941.492681,1518
1749980941.5210078,1309
1749980941.5258317,1309
1749980941.5259476,1614
1749980941.5260534,2116
1749980941.5261564,2517
1749980941.5262594,2652
1749980941.5263617,2515
1749980941.526464,2213
1749980941.526835,1864
1749980941.5832334,1562
1749980941.5833228,1334
1749980941.5834064,1284
1749980941.5834877,1530
1749980941.5835662,2006
1749980941.583646,2437
1749980941.5837264,2627
1749980941.5838048,2545
1749980941.58389,2267
1749980941.5839877,1913
1749980941.58407,1591
1749980941.5841484,1345
1749980941.5842278,1262
1749980941.5843065,1471
1749980941.584385,1933
1749980941.5844717,2395
1749980941.584555,2625
1749980941.5846334,2582
1749980941.584717,2324
1749980941.5847943,1974
1749980941.584872,1641
1749980941.5849822,1378
1749980941.5850914,1250
1749980941.5851753,1401
1749980941.5852535,1827
1749980941.5853307,2309
1749980941.5854087,2591
1749980941.5854862,2607
1749980941.5855775,2395
1749980941.5856547,2064
1749980941.585732,1718
1749980941.5858092,1432
1749980941.5858862,1263
1749980941.5859632,1360
1749980941.5860403,1746
1749980941.5861173,2226
1749980941.586194,2530
1749980941.586271,2571
1749980941.5863478,2376
1749980941.5864239,2053
1749980941.5865011,1706
1749980941.5865786,1420
1749980941.5866623,1239
1749980941.58674,1301
1749980941.586817,1656
1749980941.5868938,2151
1749980941.58697,2505
1749980941.5870476,2602
1749980941.5871263,2446
1749980941.5872025,2134
1749980941.5872793,1773
1749980941.5873554,1468
1749980941.5874324,1262
1749980941.5875084,1275
1749980941.5875852,1582
1749980941.5876615,2069
1749980941.5877385,2462
1749980941.5878153,2612
1749980941.5878935,2506
1749980941.5884352,2218
1749980941.597111,1857
1749980941.5972342,1535
1749980941.597313,1301
1749980941.5973914,1260
1749980941.5974686,1514
1749980941.5975447,1985
1749980941.597622,2410
1749980941.5980792,2602
1749980941.5994086,2529
1749980941.5995736,2254
1749980941.5999377,1889
1749980941.6006346,1556
1749980941.6007411,1312
1749980941.6008434,1237
1749980941.6009464,1449
1749980941.6010497,1902
1749980941.601152,2354
1749980941.601254,2589
1749980941.6013565,2558
1749980941.6014578,2309
1749980941.60156,1955
1749980941.6016757,1611
1749980941.6017792,1346
1749980941.6018832,1227
1749980941.6019876,1393
1749980941.6020892,1830
1749980941.602192,2319
1749980941.6022935,2603
1749980941.6024024,2617
1749980941.602506,2394
1749980941.6026084,2052
1749980941.602711,1700
1749980941.6028125,1414
1749980941.602914,1248
1749980941.6030157,1347
1749980941.6031175,1739
1749980941.6032193,2238
1749980941.6033208,2564
1749980941.6354058,2621
1749980941.702327,2427
1749980941.7049265,2098
1749980941.7613025,1743
1749980941.7617347,1450
1749980941.762627,1260
1749980941.762707,1312
1749980941.762806,1666
1749980941.8025424,2173
1749980941.8027015,2538
1749980941.8027751,2635
1749980941.8028474,2471
1749980941.8029222,2157
1749980941.8029938,1802
1749980941.8030648,1499
1749980941.803137,1278
1749980941.8032084,1270
1749980941.80328,1571
1749980941.803352,2074
1749980941.8034277,2485
1749980941.8035,2636
1749980941.8035712,2514
1749980941.803643,2215
1749980941.8037143,1856
1749980941.8037868,1541
1749980941.8038588,1306
1749980941.8039298,1256
1749980941.8040018,1507
1749980941.8040738,1989
1749980941.8041456,2428
1749980941.8042176,2621
1749980941.8042893,2539
1749980941.8043501,2260
1749980941.8044121,1903
1749980941.8044834,1579
1749980941.8045554,1333
1749980941.8046277,1244
1749980941.804699,1441
1749980941.8047712,1890
1749980941.8048356,2347
1749980941.8049057,2585
1749980941.8049831,2556
1749980941.805047,2309
1749980941.805119,1963
1749980941.8051908,1629
1749980941.8052623,1371
1749980941.8053322,1246
1749980941.8054047,1393
1749980941.8054767,1813
1749980941.8055484,2292
1749980941.805622,2573
1749980941.805694,2585
1749980941.8057644,2360
1749980941.8058362,2020
1749980941.805908,1675
1749980941.8059797,1397
1749980941.806053,1235
1749980941.8061254,1339
1749980941.806195,1745
1749980941.8062658,2262
1749980941.806337,2596
1749980941.8064084,2644
1749980941.80648,2435
1749980941.8065512,2104
1749980941.806622,1764
1749980941.8066933,1483
1749980941.8067658,1281
1749980941.806846,1307
1749980941.806925,1646
1749980941.8070014,2162
1749980941.8070781,2546
1749980941.8071544,2650
1749980941.8072312,2481
1749980941.8073077,2167
1749980941.8073845,1824
1749980941.807461,1530
1749980941.8075376,1304
1749980941.8260071,1281
1749980941.8419955,1580
1749980941.863566,2097
1749980941.8636887,2524
1749980941.8637652,2672
1749980941.8638375,2536
1749980941.863917,2233
1749980941.864588,1891
1749980941.878168,1595
1749980941.8782456,1362
1749980941.8783276,1293
1749980941.8784008,1525
1749980941.8784735,2002
1749980941.8785455,2448
1749980941.8786175,2645
1749980941.8786895,2562
1749980941.8787618,2282
1749980941.878833,1930
1749980941.8789046,1609
1749980941.878977,1358
1749980941.8790486,1257
1749980941.8791199,1452
1749980941.8791919,1914
1749980941.8792632,2388
1749980941.8793347,2628
1749980941.8794065,2585
1749980941.8794777,2325
1749980941.8795493,1980
1749980941.8796299,1653
1749980941.879701,1390
1749980941.8797722,1252
1749980941.8798432,1398
1749980941.8799145,1841
1749980941.8799856,2351
1749980941.8800573,2644
1749980941.8801286,2640
1749980941.8802,2398
1749980941.8802714,2061
1749980941.880334,1732
1749980941.8804057,1461
1749980941.880477,1282
1749980941.880548,1355
1749980941.8806195,1737
1749980941.8806913,2250
1749980941.880763,2594
1749980941.8808343,2652
1749980941.8808997,2450
1749980941.88096,2120
1749980941.8810315,1774
1749980941.8811028,1484
1749980941.881174,1281
1749980941.8812454,1314
1749980941.881317,1660
1749980941.881412,2175
1749980941.8814838,2553
1749980941.881558,2653
1749980941.8816347,2487
1749980941.8818936,2172
1749980941.8819642,1819
1749980941.8820355,1514
1749980941.882107,1288
1749980941.8821778,1274
1749980941.8822489,1578
1749980941.8823202,2088
1749980941.8823907,2503
1749980941.8824618,2647
1749980941.882533,2518
1749980941.8826041,2220
1749980941.8826752,1869
1749980941.8827462,1557
1749980941.8828173,1317
1749980941.882888,1257
1749980941.8829594,1507
1749980941.8830304,1997
1749980941.8831015,2444
1749980941.8831725,2638
1749980941.8832433,2553
1749980941.8833141,2275
1749980941.8833852,1925
1749980941.8834562,1601
1749980941.8835373,1344
1749980941.8836086,1241
1749980941.8836794,1438
1749980941.88375,1906
1749980941.8838208,2387
1749980941.8838918,2632
1749980941.8839626,2594
1749980941.8840332,2337
1749980941.8841045,1991
1749980941.884175,1658
1749980941.884246,1389
1749980941.884311,1246
1749980941.8843749,1385
1749980941.884446,1816
1749980941.884517,2314
1749980941.8845875,2605
1749980941.8846583,2613
1749980941.8847291,2387
1749980941.8848002,2056
1749980941.884871,1722
1749980941.8849301,1443
1749980941.8850079,1265
1749980941.8850782,1348
1749980941.8851478,1743
1749980941.885218,2259
1749980941.885288,2594
1749980941.8853576,2639
1749980941.8854275,2431
1749980941.8855004,2108
1749980941.88557,1776
1749980941.8856394,1494
1749980941.885709,1286
1749980941.8857787,1310
1749980941.8858485,1659
1749980941.885918,2191
1749980941.8859875,2583
1749980941.8860567,2680
1749980941.886126,2500
1749980941.886196,2185
1749980941.8862655,1851
1749980941.886335,1564
1749980941.8864043,1332
1749980941.8864737,1295
1749980941.886544,1586
1749980941.8866136,2110
1749980941.886683,2547
1749980941.8867524,2692
1749980941.8868222,2546
1749980941.8868918,2240
1749980941.8869615,1904
1749980941.8870308,1611
1749980941.8871007,1364
1749980941.8871703,1281
1749980941.8872397,1521
1749980941.8873088,2033
1749980941.8873782,2510
1749980941.8874552,2707
1749980941.8875248,2601
1749980941.8875945,2309
1749980941.887664,1974
1749980941.887734,1673
1749980941.887803,1414
1749980941.8878722,1281
1749980941.8879418,1450
1749980941.888011,1918
1749980941.8923833,2414
1749980941.9208572,2663
1749980941.922257,2611
1749980941.9237046,2342
1749980941.9250202,2005
1749980941.9263167,1693
1749980941.9404871,1432
1749980941.941131,1278
1749980941.9425387,1404
1749980941.951359,1837
1749980941.9517848,2346
1749980941.951896,2635
1749980941.9520042,2624
1749980941.952112,2377
1749980941.9522178,2043
1749980941.952325,1720
1749980941.9524388,1451
1749980941.9525452,1268
1749980941.9526522,1337
1749980941.9531837,1724
1749980941.9532979,2244
1749980941.9534054,2586
1749980941.9535124,2631
1749980941.9536433,2417
1749980941.9537504,2090
1749980941.9538567,1759
1749980941.9539633,1480
1749980941.9540808,1270
1749980941.9541867,1284
1749980941.954299,1622
1749980941.9544048,2147
1749980941.9545248,2538
1749980941.9546309,2635
1749980941.954737,2454
1749980941.954844,2133
1749980941.956292,1792
1749980941.9612787,1506
1749980941.9621553,1283
1749980941.9624956,1254
1749980941.9628315,1542
1749980941.982087,2056
1749980941.9822521,2487
1749980941.982327,2639
1749980941.9824,2506
1749980941.9824715,2203
1749980941.9825573,1858
1749980941.9826288,1556
1749980941.9827003,1312
1749980941.9827716,1234
1749980941.9828432,1466
1749980941.9829144,1956
1749980941.9829857,2419
1749980941.9831269,2625
1749980941.983626,2542
1749980942.0288143,2260
1749980942.0306127,1911
1749980942.0307155,1595
1749980942.0308013,1341
1749980942.0308635,1231
1749980942.0309453,1421
1749980942.0337675,1890
1749980942.0338826,2379
1749980942.0339653,2627
1749980942.034046,2581
1749980942.0341282,2317
1749980942.0342097,1973
1749980942.034292,1647
1749980942.0343745,1379
1749980942.0344553,1224
1749980942.0345376,1351
1749980942.0346184,1783
1749980942.0346992,2298
1749980942.0768967,2604
1749980942.0996478,2613
1749980942.1323328,2375
1749980942.1324513,2033
1749980942.1659229,1694
1749980942.16631,1414
1749980942.166469,1230
1749980942.214965,1306
1749980942.2314203,1700
1749980942.2315276,2225
1749980942.2315946,2572
1749980942.2316787,2622
1749980942.2317448,2412
1749980942.23181,2085
1749980942.2318752,1748
1749980942.2319403,1461
1749980942.2320051,1248
1749980942.2320702,1268
1749980942.2321348,1617
1749980942.2322,2153
1749980942.2322598,2550
1749980942.2328622,2648
1749980942.2329264,2466
1749980942.2329922,2144
1749980942.2330575,1802
1749980942.2331223,1508
1749980942.2331867,1275
1749980942.2332516,1239
1749980942.2333162,1533
1749980942.2333806,2058
1749980942.2334454,2498
1749980942.233526,2651
1749980942.2335908,2512
1749980942.2336557,2206
1749980942.2337208,1862
1749980942.2337863,1563
1749980942.2338514,1320
1749980942.2339165,1242
1749980942.2339816,1479
1749980942.2340484,1979
1749980942.2341137,2448
1749980942.234179,2652
1749980942.234244,2562
1749980942.2343097,2278
1749980942.234374,1934
1749980942.2344387,1621
1749980942.234504,1364
1749980942.2345686,1245
1749980942.2731757,1428
1749980942.307995,1898
1749980942.3156667,2393
1749980942.3158185,2643
1749980942.315964,2595
1749980942.3160958,2329
1749980942.3161933,1987
1749980942.3162894,1666
1749980942.3163757,1399
1749980942.3164725,1245
1749980942.3165698,1374
1749980942.3166666,1811
1749980942.3167632,2333
1749980942.3168595,2638
1749980942.316945,2639
1749980942.3170414,2395
1749980942.3171377,2056
1749980942.3172345,1727
1749980942.3173335,1455
1749980942.317431,1271
1749980942.3175278,1340
1749980942.3176346,1726
1749980942.3729093,2249
1749980942.3842127,2599
1749980942.384417,2654
1749980942.384494,2450
1749980942.3845694,2126
1749980942.3846443,1791
1749980942.3847332,1506
1749980942.4033096,1293
