1749980066.5230992,1041
1749980066.5987391,1167
1749980066.599097,1563
1749980066.599649,2024
1749980066.5998385,2299
1749980066.6002972,2319
1749980066.6006258,2111
1749980066.601245,1785
1749980066.604415,1451
1749980066.6051204,1184
1749980066.6063545,1027
1749980066.607105,1112
1749980066.6080205,1469
1749980066.608778,1933
1749980066.6096706,2247
1749980066.6103308,2321
1749980066.611121,2158
1749980066.6120126,1849
1749980066.6127884,1503
1749980066.6138053,1221
1749980066.6144323,1044
1749980066.615181,1085
1749980066.6157153,1392
1749980066.6164927,1837
1749980066.6171727,2172
1749980066.618049,2290
1749980066.6189227,2172
1749980066.6199405,1883
1749980066.6206598,1527
1749980066.6214886,1230
1749980066.622193,1041
1749980066.6229215,1055
1749980066.6236668,1325
1749980066.624359,1755
1749980066.625088,2111
1749980066.6258945,2270
1749980066.626586,2202
1749980066.6273196,1941
1749980066.6281106,1580
1749980066.6288223,1254
1749980066.629684,1038
1749980066.6306908,1017
1749980066.6314592,1258
1749980066.6321223,1680
1749980066.6327531,2059
1749980066.633562,2246
1749980066.6341882,2213
1749980066.6349173,1978
1749980066.6356025,1626
1749980066.6362615,1286
1749980066.6369362,1048
1749980066.637652,987
1749980066.6384466,1190
1749980066.6391203,1602
1749980066.6406565,2012
1749980066.6413183,2244
1749980066.6419988,2257
1749980066.6426892,2055
1749980066.6433399,1714
1749980066.6443794,1360
1749980066.64512,1098
1749980066.645799,994
1749980066.6464398,1149
1749980066.647076,1536
1749980066.6477432,1968
1749980066.6484494,2239
1749980066.6491122,2293
1749980066.649841,2122
1749980066.6520464,1799
1749980066.6533475,1437
1749980066.6539218,1155
1749980066.6548204,1012
1749980066.655447,1116
1749980066.6561713,1466
1749980066.656805,1904
1749980066.6574004,2205
1749980066.6592104,2292
1749980066.6601567,2152
1749980066.6643798,1848
1749980066.6707652,1483
1749980066.6713808,1184
1749980066.6720812,1011
1749980066.672829,1072
1749980066.673675,1394
1749980066.6743538,1842
1749980066.6752894,2177
1749980066.6765099,2299
1749980066.6776466,2190
1749980066.6788619,1906
1749980066.6795194,1540
1749980066.6806428,1226
1749980066.6812708,1026
1749980066.6820176,1039
1749980066.6826222,1319
1749980066.6833348,1763
1749980066.6838925,2134
1749980066.6845202,2302
1749980066.685068,2241
1749980066.6856673,1983
1749980066.6866431,1619
1749980066.6871917,1283
1749980066.6877878,1055
1749980066.6883788,1023
1749980066.6889355,1259
1749980066.6896157,1686
1749980066.6905184,2078
1749980066.6913102,2279
1749980066.6920862,2256
1749980066.6928227,2028
1749980066.6934707,1677
1749980066.6942809,1334
1749980066.695041,1086
1749980066.695698,1010
1749980066.6974287,1200
1749980066.6986315,1609
1749980066.6992903,2028
1749980066.7000978,2268
1749980066.7008388,2285
1749980066.7015793,2085
1749980066.7023013,1748
1749980066.7030156,1395
1749980066.7037282,1127
1749980066.704348,1009
1749980066.705135,1151
1749980066.7061183,1535
1749980066.706617,1975
1749980066.7070825,2252
1749980066.7076063,2303
1749980066.7080662,2125
1749980066.7089002,1799
1749980066.709512,1440
1749980066.710029,1161
1749980066.7105448,1015
1749980066.7110496,1108
1749980066.711666,1454
1749980066.7122793,1899
1749980066.7128842,2213
1749980066.713493,2311
1749980066.7142305,2177
1749980066.7146442,1874
1749980066.7151415,1510
1749980066.715568,1212
1749980066.7161222,1036
1749980066.716754,1089
1749980066.7173798,1404
1749980066.7180834,1853
1749980066.7185972,2197
1749980066.7196023,2328
1749980066.7201834,2229
1749980066.7209218,1950
1749980066.721593,1587
1749980066.7220242,1269
1749980066.7225034,1060
1749980066.7227542,1060
1749980066.7232187,1331
1749980066.7235796,1774
1749980066.7238574,2149
1749980066.7242427,2318
1749980066.7247784,2254
1749980066.7250893,1999
1749980066.725373,1645
1749980066.7256885,1318
1749980066.7258976,1088
1749980066.726256,1045
1749980066.7266524,1273
1749980066.7269385,1706
1749980066.7273495,2112
1749980066.7281806,2320
1749980066.7284687,2293
1749980066.7287195,2060
1749980066.7290115,1713
1749980066.7297716,1373
1749980066.730072,1120
1749980066.730647,1028
1749980066.7309837,1208
1749980066.7313945,1625
1749980066.7318108,2065
1749980066.7321568,2316
1749980066.7324603,2325
1749980066.732794,2113
1749980066.733209,1778
1749980066.7334156,1434
1749980066.7339208,1164
1749980066.7341118,1028
1749980066.7344303,1156
1749980066.734708,1553
1749980066.7350621,2022
1749980066.7356422,2314
1749980066.7361794,2356
1749980066.73645,2172
1749980066.7368283,1865
1749980066.7372944,1532
1749980066.7375245,1246
1749980066.737802,1057
1749980066.7380333,1127
1749980066.7383137,1512
1749980066.7387245,2031
1749980066.7390976,2374
1749980066.7395067,2431
1749980066.74058,2246
1749980066.7406924,1953
1749980066.7408254,1640
1749980066.7409942,1350
1749980066.7411723,1108
1749980066.741375,1093
1749980066.7415326,1435
1749980066.7416897,1996
1749980066.7417648,2421
1749980066.741891,2525
1749980066.7519817,2343
1749980066.7542171,2038
1749980066.754366,1734
1749980066.754514,1473
1749980066.760636,1230
1749980066.7616177,1125
1749980066.7623985,1319
1749980066.7630403,1770
1749980066.7632537,2194
1749980066.763496,2378
1749980066.7636836,2289
1749980066.7639394,2014
1749980066.7641864,1675
1749980066.764413,1374
1749980066.7646,1141
1749980066.764796,1064
1749980066.764991,1271
1749980066.7652464,1715
1749980066.7654977,2141
1749980066.7657592,2339
1749980066.765978,2280
1749980066.766194,2025
1749980066.766426,1688
1749980066.7666125,1376
1749980066.7668104,1139
1749980066.7670174,1043
1749980066.7672772,1215
1749980066.7674813,1635
1749980066.7677305,2080
1749980066.7679124,2320
1749980066.7681165,2309
1749980066.7684624,2088
1749980066.768696,1766
1749980066.7689192,1444
1749980066.7691307,1186
1749980066.7694316,1041
1749980066.769615,1149
1749980066.7697892,1528
1749980066.7700667,1988
1749980066.7703478,2276
1749980066.770676,2314
1749980066.7708933,2127
1749980066.771093,1817
1749980066.7713375,1485
1749980066.7715576,1210
1749980066.7717905,1031
1749980066.7720246,1088
1749980066.7722552,1434
1749980066.772575,1914
1749980066.773563,2251
1749980066.7738113,2331
1749980066.7740698,2165
1749980066.7743106,1862
1749980066.7745428,1529
1749980066.774749,1251
1749980066.7749305,1052
1749980066.7751384,1058
1749980066.7753298,1357
1749980066.7755103,1838
1749980066.77569,2220
1749980066.7758682,2351
1749980066.7760475,2224
1749980066.7762258,1936
1749980066.776434,1599
1749980066.7766237,1308
1749980066.7768028,1086
1749980066.7770014,1042
1749980066.7771795,1289
1749980066.7773597,1754
1749980066.7775395,2164
1749980066.7777178,2335
1749980066.7778966,2243
1749980066.778077,1972
1749980066.7782547,1635
1749980066.7784503,1331
1749980066.7786288,1093
1749980066.7788088,1007
1749980066.7789872,1207
1749980066.7791655,1653
1749980066.7793596,2094
1749980066.779552,2310
1749980066.779732,2262
1749980066.7799137,2012
1749980066.7801037,1678
1749980066.780282,1363
1749980066.7804613,1115
1749980066.7806406,994
1749980066.780821,1140
1749980066.781016,1549
1749980066.7812262,2003
1749980066.7814832,2260
1749980066.781743,2260
1749980066.7819784,2038
1749980066.7822368,1710
1749980066.7825003,1384
1749980066.7827435,1127
1749980066.7830017,981
1749980066.7832887,1085
1749980066.7835479,1463
1749980066.784693,1931
1749980066.78493,2231
1749980066.7851167,2277
1749980066.7853184,2088
1749980066.7854853,1772
1749980066.785701,1436
1749980066.7859511,1162
1749980066.7861784,983
1749980066.7863743,1035
1749980066.7866006,1371
1749980066.7867866,1845
1749980066.7869985,2184
1749980066.7871954,2273
1749980066.787386,2118
1749980066.7875962,1817
1749980066.7878108,1477
1749980066.7880204,1189
1749980066.7882087,986
1749980066.7884088,989
1749980066.7886026,1283
1749980066.7888138,1757
1749980066.7889807,2133
1749980066.789233,2268
1749980066.789511,2152
1749980066.7898264,1875
1749980066.7901006,1540
1749980066.7903557,1244
1749980066.790589,1021
1749980066.7908702,976
1749980066.7911332,1218
1749980066.7913663,1676
1749980066.7916083,2086
1749980066.791966,2267
1749980066.7922719,2194
1749980066.79253,1934
1749980066.7927785,1595
1749980066.7931333,1289
1749980066.7934349,1059
1749980066.7939053,987
1749980066.7943227,1188
1749980066.7960827,1621
1749980066.7967005,2048
1749980066.797181,2266
1749980066.7974887,2238
1749980066.7977424,2007
1749980066.7980678,1673
1749980066.798356,1345
1749980066.7986417,1089
1749980066.79876,972
1749980066.7989655,1125
1749980066.7992172,1533
1749980066.7994723,1979
1749980066.799733,2232
1749980066.8000195,2239
1749980066.8002577,2033
1749980066.8003938,1717
1749980066.8005152,1391
1749980066.8006413,1130
1749980066.8007681,981
1749980066.8009007,1082
1749980066.801041,1457
1749980066.801167,1925
1749980066.8013077,2228
1749980066.801455,2279
1749980066.8015826,2096
1749980066.8676229,1780
1749980066.990333,1441
1749980067.0997338,1166
1749980067.1002784,991
1749980067.1442928,1043
1749980067.1444726,1375
1749980067.1447043,1844
1749980067.1449409,2183
1749980067.145144,2280
1749980067.1453805,2137
1749980067.1456223,1845
1749980067.14586,1508
1749980067.1460907,1222
1749980067.1462908,1021
1749980067.14649,1022
1749980067.1466904,1306
1749980067.14689,1771
1749980067.147089,2147
1749980067.147288,2287
1749980067.147487,2176
1749980067.1476853,1894
1749980067.1478834,1550
1749980067.1480618,1253
1749980067.1482992,1039
1749980067.148545,1002
1749980067.1487825,1243
1749980067.1489758,1695
1749980067.1492856,2104
1749980067.1494846,2289
1749980067.1496987,2224
1749980067.1498988,1968
1749980067.1500127,1628
1749980067.1552396,1315
1749980067.1604865,1078
1749980067.1607244,996
1749980067.1608691,1188
1749980067.160999,1618
1749980067.1611412,2053
1749980067.1612515,2282
1749980067.1614525,2258
1749980067.1616433,2023
1749980067.1617777,1686
1749980067.1618798,1361
1749980067.1619515,1112
1749980067.1620224,993
1749980067.1620944,1124
1749980067.1621654,1503
1749980067.162237,1939
1749980067.162309,2207
1749980067.1623805,2240
1749980067.1624534,2044
1749980067.1625254,1712
1749980067.1626887,1363
1749980067.1628847,1098
1749980067.1631086,965
1749980067.1633317,1077
1749980067.16383,1438
1749980067.1644578,1883
1749980067.1648428,2180
1749980067.1649911,2253
1749980067.1651475,2094
1749980067.1654453,1780
1749980067.1657183,1420
1749980067.165864,1133
1749980067.1660092,971
1749980067.166156,1040
1749980067.2782006,1370
1749980067.3362267,1820
1749980067.3940275,2152
1749980067.4412823,2266
1749980067.4993331,2147
1749980067.562782,1855
1749980067.6065247,1492
1749980067.6534953,1186
1749980067.6886237,993
1749980067.786851,1015
1749980067.8282497,1303
1749980067.8518686,1746
1749980067.8584392,2105
1749980067.8618093,2257
1749980067.861987,2177
1749980067.8621552,1911
1749980067.862322,1551
1749980067.862489,1226
1749980067.8626556,1005
1749980067.8628223,982
1749980067.8629887,1232
1749980067.8680086,1672
1749980067.873711,2063
1749980067.873958,2253
1749980067.8741596,2213
1749980067.8766963,1974
1749980067.877318,1623
1749980067.87744,1286
1749980067.87756,1043
1749980067.8776677,977
1749980067.877773,1185
1749980067.877878,1611
1749980067.8895736,2030
1749980067.942182,2257
1749980067.9422796,2253
1749980067.9423628,2038
1749980067.9424696,1697
1749980067.9425535,1350
1749980067.9426363,1088
1749980067.9427192,977
1749980067.9428017,1125
1749980067.9429004,1509
1749980067.9441366,1936
1749980067.9442487,2201
1749980067.9443378,2247
1749980067.9444203,2071
1749980067.9445024,1743
1749980067.944587,1379
1749980067.9446898,1098
1749980067.9447677,961
1749980067.9448495,1079
1749980067.9449344,1443
1749980067.9450214,1884
1749980067.9451323,2177
1749980067.9452157,2256
1749980067.9452982,2113
1749980067.9453807,1813
1749980067.945463,1455
1749980067.9455612,1161
1749980067.9456437,990
1749980067.9457264,1055
1749980067.9458086,1384
1749980067.9458907,1837
1749980067.9459872,2171
1749980067.9460707,2290
1749980067.9461534,2177
1749980067.9462383,1891
1749980067.9463882,1529
1749980067.9464638,1219
1749980067.9465387,1018
1749980067.9466136,1029
1749980067.9466884,1306
1749980067.9467635,1743
1749980067.9468365,2103
1749980067.9469116,2262
1749980067.946986,2193
1749980067.9470615,1935
1749980067.9471362,1578
1749980067.9472115,1253
1749980067.9472854,1036
1749980067.9473617,1012
1749980067.9474373,1253
1749980067.9475124,1679
1749980067.9475865,2063
1749980067.9476616,2255
1749980067.9477348,2225
1749980067.9478097,1993
1749980067.947884,1641
1749980067.9479592,1298
1749980067.9480343,1055
1749980067.9481096,991
1749980067.9481838,1195
1749980067.9487143,1611
1749980067.94879,2022
1749980067.948864,2249
1749980067.948939,2257
1749980067.9490106,2057
1749980067.9490857,1726
1749980067.94916,1380
1749980067.9492338,1115
1749980067.9493086,1001
1749980067.9493835,1151
1749980067.9494565,1543
1749980067.9495313,1981
1749980067.949607,2249
1749980067.9496825,2290
1749980067.949759,2111
1749980067.9498346,1792
1749980067.9499085,1443
1749980067.9499836,1164
1749980067.950059,1011
1749980067.9501414,1107
1749980067.950215,1468
1749980067.9502769,1928
1749980067.950338,2241
1749980067.95042,2320
1749980067.9629612,2163
1749980067.9881763,1854
1749980067.98932,1503
1749980067.9894288,1217
1749980067.9895484,1039
1749980067.9916167,1080
1749980067.9917426,1391
1749980067.9918473,1846
1749980067.9919505,2198
1749980068.0309756,2327
1749980068.103033,2210
1749980068.2452254,1917
1749980068.2966359,1554
1749980068.3153656,1249
1749980068.3154433,1050
1749980068.3155172,1057
1749980068.3159297,1336
1749980068.3162832,1791
1749980068.3163931,2174
1749980068.3164883,2339
1749980068.3228228,2260
1749980068.322945,1988
1749980068.3230193,1627
1749980068.323093,1305
1749980068.3231657,1080
1749980068.3232388,1039
1749980068.3233118,1272
1749980068.3233845,1712
1749980068.3234556,2122
1749980068.323528,2328
1749980068.3235989,2292
1749980068.323669,2052
1749980068.3237476,1703
1749980068.3238184,1371
1749980068.3238916,1128
1749980068.3239634,1046
1749980068.3240342,1229
1749980068.324105,1639
1749980068.3241756,2064
1749980068.324246,2308
1749980068.3243167,2321
1749980068.3243868,2115
1749980068.324461,1773
1749980068.3245325,1419
1749980068.3246033,1155
1749980068.3246768,1042
1749980068.324749,1187
1749980068.3248196,1568
1749980068.3248901,2000
1749980068.3249602,2272
1749980068.3250535,2328
1749980068.3251293,2159
1749980068.3252032,1835
1749980068.3252769,1469
1749980068.32535,1180
1749980068.3254225,1034
1749980068.3254943,1140
1749980068.3255665,1496
1749980068.3256388,1938
1749980068.3257139,2240
1749980068.3257866,2332
1749980068.3258586,2205
1749980068.325931,1913
1749980068.331511,1551
1749980068.3485827,1241
1749980068.348663,1046
1749980068.3487308,1084
1749980068.348797,1392
1749980068.3488631,1837
1749980068.34893,2179
1749980068.3489957,2312
1749980068.349062,2217
1749980068.349128,1943
1749980068.3491936,1585
1749980068.4108331,1270
1749980068.4320884,1063
1749980068.4539983,1066
1749980068.4932957,1338
1749980068.538108,1776
1749980068.53819,2144
1749980068.5382528,2313
1749980068.5384333,2255
1749980068.5385036,2005
1749980068.5385702,1648
1749980068.5386386,1315
1749980068.538709,1082
1749980068.5444362,1039
1749980068.594863,1267
1749980068.6520014,1693
1749980068.652355,2091
1749980068.6565764,2299
1749980068.6569602,2283
1749980068.6594305,2059
1749980068.6598475,1707
1749980068.6602137,1359
1749980068.6605773,1106
1749980068.6609406,1026
1749980068.6813629,1216
1749980068.7429202,1625
1749980068.7801018,2045
1749980068.7802029,2289
1749980068.7802937,2314
1749980068.7804332,2124
1749980068.780524,1792
1749980068.7806141,1435
1749980068.7807043,1160
1749980068.7807934,1036
1749980068.7815313,1175
1749980068.782067,1555
1749980068.782163,1991
1749980068.790316,2267
1749980068.790392,2326
1749980068.7904747,2163
1749980068.7905536,1848
1749980068.790632,1488
1749980068.7907114,1197
1749980068.7907891,1039
1749980068.7908678,1129
1749980068.7909458,1478
1749980068.7910237,1925
1749980068.791103,2237
1749980068.7911808,2332
1749980068.7912586,2197
1749980068.7913375,1897
1749980068.7914147,1533
1749980068.7914925,1228
1749980068.7915683,1042
1749980068.7916467,1087
1749980068.8471804,1400
1749980068.8473318,1851
1749980068.847405,2197
1749980068.8474767,2330
1749980068.8475485,2232
1749980068.8476198,1953
1749980068.847696,1587
1749980068.8477688,1263
1749980068.8478405,1048
1749980068.847913,1041
1749980068.847987,1309
1749980068.8480601,1752
1749980068.848132,2134
1749980068.8482032,2313
1749980068.8482745,2258
1749980068.8483472,2002
1749980068.848432,1637
1749980068.848504,1299
1749980068.848575,1063
1749980068.8486488,1017
1749980068.8487263,1242
1749980068.8487978,1669
1749980068.8488693,2072
1749980068.8489413,2286
1749980068.849013,2270
1749980068.8490844,2045
1749980068.8491578,1696
1749980068.849229,1351
1749980068.8493035,1099
1749980068.8493755,1011
1749980068.849443,1187
1749980068.8495066,1588
1749980068.849578,2011
1749980068.8496516,2261
1749980068.849726,2285
1749980068.8497977,2086
1749980068.849869,1747
1749980068.8499403,1393
1749980068.850012,1127
1749980068.850084,1008
1749980068.8501556,1140
1749980068.8502264,1512
1749980068.8502965,1948
1749980068.8503573,2232
1749980068.8504255,2298
1749980068.8504972,2133
1749980068.8505683,1811
1749980068.8506396,1445
1749980068.8507214,1153
1749980068.8507926,994
1749980068.8508646,1077
1749980068.8509364,1418
1749980068.851008,1866
1749980068.851079,2185
1749980068.85115,2286
1749980068.8512213,2155
1749980068.8512924,1857
1749980068.851364,1495
1749980068.8514352,1195
1749980068.8515065,1012
1749980068.851577,1050
1749980068.851959,1353
1749980068.8520312,1801
1749980068.8521028,2154
1749980068.8521733,2297
1749980068.8522444,2208
1749980068.8523157,1937
1749980068.8523867,1579
1749980068.852458,1263
1749980068.8525286,1051
1749980068.8525999,1043
1749980068.8526776,1306
1749980068.852749,1747
1749980068.8528202,2128
1749980068.8528914,2304
1749980068.852963,2248
1749980068.853035,1997
1749980068.8531072,1643
1749980068.8531787,1313
1749980068.8532505,1080
1749980068.853322,1028
1749980068.8533936,1246
1749980068.853458,1671
1749980068.8535175,2079
1749980068.8535886,2296
1749980068.85366,2283
1749980068.8537316,2057
1749980068.853803,1708
1749980068.8538752,1362
1749980068.8539476,1110
1749980068.8540194,1022
1749980068.854092,1199
1749980068.854163,1602
1749980068.854235,2030
1749980068.8543072,2286
1749980068.8543692,2320
1749980068.854436,2131
1749980068.854508,1797
1749980068.8545895,1440
1749980068.8546612,1167
1749980068.8547323,1041
1749980068.8548045,1171
1749980068.854876,1542
1749980068.8549473,1977
1749980068.8550193,2261
1749980068.855109,2329
1749980068.855181,2173
1749980068.8552535,1859
1749980068.8553255,1495
1749980068.8553967,1203
1749980068.8554692,1042
1749980068.8555412,1125
1749980068.8556135,1467
1749980068.8556852,1915
1749980068.855757,2235
1749980068.8558292,2341
1749980068.8559012,2217
1749980068.855973,1926
1749980068.856045,1565
1749980068.8561168,1260
1749980068.8561888,1070
1749980068.8562603,1101
1749980068.856332,1400
1749980068.856404,1848
1749980068.8564758,2202
1749980068.8565478,2347
1749980068.8566208,2260
1749980068.8566945,1986
1749980068.8567667,1622
1749980068.8568385,1299
1749980068.8569095,1085
1749980068.8569813,1073
1749980068.8682804,1330
1749980068.8926256,1766
1749980068.8938754,2144
1749980068.8965173,2324
1749980068.9093437,2277
1749980068.9094203,2032
1749980068.9094925,1677
1749980068.9095626,1341
1749980068.9096446,1103
1749980068.9097116,1046
1749980068.909782,1260
1749980068.9098535,1681
1749980068.9099278,2086
1749980068.9099984,2302
1749980068.9100676,2292
1749980068.9101381,2073
1749980068.910209,1729
1749980068.9102798,1384
1749980068.9103503,1128
1749980068.9104207,1029
1749980068.9104912,1194
1749980068.9105623,1592
1749980068.9106328,2023
1749980068.9107034,2285
1749980068.910775,2322
1749980068.910846,2134
1749980068.9109173,1800
1749980068.910988,1439
1749980068.9110587,1162
1749980068.911129,1029
1749980068.9111996,1150
1749980068.9112704,1518
1749980068.9113402,1957
1749980068.9114113,2246
1749980068.9114819,2317
1749980068.9115524,2161
1749980068.9116313,1846
1749980068.9117167,1482
1749980068.911788,1190
1749980068.9118583,1028
1749980068.9119287,1105
1749980068.911999,1440
1749980068.9120688,1887
1749980068.9121392,2213
1749980068.912209,2327
1749980068.91228,2209
1749980068.9123511,1915
1749980068.9124222,1546
1749980068.912493,1235
1749980068.912563,1044
1749980068.9126341,1076
1749980068.9127047,1372
1749980068.9127755,1814
1749980068.9128458,2167
1749980068.9129167,2318
1749980068.9129872,2242
1749980068.9130578,1975
1749980068.913128,1609
1749980068.9131982,1278
1749980068.9132686,1058
1749980068.9133391,1044
1749980068.9134095,1305
1749980068.9134796,1748
1749980068.9135501,2138
1749980068.9136262,2327
1749980068.9136968,2283
1749980068.9137676,2037
1749980068.9138381,1678
1749980068.9139059,1339
1749980068.913976,1100
1749980068.9140468,1042
1749980068.914117,1255
1749980068.9141874,1679
1749980068.9142597,2094
1749980068.9143312,2319
1749980068.914402,2313
1749980068.9144728,2091
1749980068.9145439,1742
1749980068.9146144,1389
1749980068.9146855,1122
1749980068.9147565,1016
1749980068.9148276,1181
1749980068.9148977,1590
1749980068.914968,2037
1749980068.9406226,2303
1749980068.9407945,2331
1749980068.9408684,2136
1749980068.940941,1805
1749980068.9412508,1451
1749980068.9993594,1172
1749980068.9994454,1025
1749980068.9995165,1137
1749980068.99975,1519
1749980068.9998372,1989
1749980068.9999075,2298
1749980068.9999747,2365
1749980069.000043,2194
1749980069.0001845,1876
1749980069.0002582,1521
1749980069.00035,1230
1749980069.005878,1050
1749980069.0064502,1106
1749980069.0065286,1440
1749980069.0065956,1909
1749980069.0066645,2254
1749980069.0067327,2364
1749980069.006801,2232
1749980069.0068696,1936
1749980069.0069368,1581
1749980069.0070055,1276
1749980069.007072,1068
1749980069.0071404,1075
1749980069.0072067,1371
1749980069.0072753,1843
1749980069.0073414,2225
1749980069.0074096,2373
1749980069.0074766,2275
1749980069.0075438,2001
1749980069.0076125,1654
1749980069.0076783,1342
1749980069.007749,1114
1749980069.0078177,1071
1749980069.0078835,1312
1749980069.0079565,1764
1749980069.0080228,2170
1749980069.0080948,2357
1749980069.0081658,2296
1749980069.0082333,2044
1749980069.0082994,1701
1749980069.0083785,1379
1749980069.008447,1134
1749980069.0085156,1052
1749980069.008581,1254
1749980069.0086474,1698
1749980069.0087137,2144
1749980069.0087795,2375
1749980069.00902,2350
1749980069.0090878,2111
1749980069.0091538,1770
1749980069.0092194,1439
1749980069.0092876,1182
1749980069.0096605,1057
1749980069.0097346,1198
1749980069.0098035,1602
1749980069.0098693,2065
1749980069.009941,2345
1749980069.0120633,2373
1749980069.012292,2172
1749980069.0124536,1846
1749980069.0125892,1506
1749980069.012836,1234
1749980069.012972,1073
1749980069.058097,1160
1749980069.075089,1522
1749980069.0751693,1988
1749980069.081931,2298
1749980069.151704,2360
1749980069.15385,2185
1749980069.1539443,1877
1749980069.154016,1542
1749980069.1540823,1265
1749980069.1541502,1077
1749980069.1542284,1108
1749980069.1636715,1426
1749980069.2163975,1900
1749980069.2164955,2256
1749980069.2165892,2365
1749980069.2166595,2221
1749980069.2167258,1920
1749980069.2167928,1574
1749980069.216861,1286
1749980069.216928,1083
1749980069.2169955,1076
1749980069.217064,1353
1749980069.2171328,1817
1749980069.2171998,2202
1749980069.2172675,2351
1749980069.2173336,2250
1749980069.2288425,1976
1749980069.228943,1637
1749980069.2355218,1337
1749980069.2430196,1112
1749980069.2508307,1057
1749980069.2547572,1285
1749980069.2565422,1735
1749980069.262781,2150
1749980069.2709916,2341
1749980069.271066,2280
1749980069.2711484,2029
1749980069.2712152,1696
1749980069.2712815,1388
1749980069.2713473,1148
1749980069.2715626,1051
1749980069.272147,1228
1749980069.2722306,1655
1749980069.272441,2096
1749980069.2725112,2331
1749980069.2725801,2312
1749980069.2726483,2083
1749980069.2727163,1755
1749980069.272869,1436
1749980069.2729375,1182
1749980069.2730045,1049
1749980069.2730703,1174
1749980069.2731378,1566
1749980069.2732072,2024
1749980069.2732747,2301
1749980069.2733614,2326
1749980069.2734363,2126
1749980069.2735045,1809
1749980069.2735717,1482
1749980069.2737741,1217
1749980069.273842,1056
1749980069.2739098,1136
1749980069.2739792,1495
1749980069.274047,1965
1749980069.274114,2280
1749980069.2742002,2345
1749980069.2742598,2174
1749980069.2743258,1867
1749980069.2743926,1532
1749980069.2744591,1258
1749980069.2745252,1078
1749980069.2745922,1112
1749980069.2746804,1424
1749980069.274747,1887
1749980069.2748132,2237
1749980069.274879,2353
1749980069.274946,2225
1749980069.2750132,1935
1749980069.2755144,1588
1749980069.2895994,1295
1749980069.3429098,1094
1749980069.3455439,1086
1749980069.4086795,1348
1749980069.4089603,1787
1749980069.4090507,2153
1749980069.409167,2307
1749980069.4112272,2228
1749980069.4113488,1970
1749980069.4114597,1624
1749980069.411531,1305
1749980069.4116013,1073
1749980069.4116716,1027
1749980069.4121463,1270
1749980069.4315472,1726
1749980069.436081,2138
1749980069.439751,2323
1749980069.4401581,2261
1749980069.4402301,2013
1749980069.4402993,1682
1749980069.4403667,1371
1749980069.4404352,1128
1749980069.4405022,1027
1749980069.440569,1196
1749980069.4406369,1614
1749980069.4407032,2055
1749980069.44077,2297
1749980069.440838,2288
1749980069.4409058,2065
1749980069.4409723,1734
1749980069.4410393,1408
1749980069.4411104,1155
1749980069.4411757,1026
1749980069.441243,1153
1749980069.4413092,1539
1749980069.4413764,1992
1749980069.4416504,2273
1749980069.4417427,2311
1749980069.4418097,2121
1749980069.4418766,1800
1749980069.4419372,1457
1749980069.4420004,1183
1749980069.4420667,1021
1749980069.4421327,1097
1749980069.4421995,1441
1749980069.4422593,1897
1749980069.4424026,2212
1749980069.4424696,2295
1749980069.442542,2143
1749980069.4426088,1840
1749980069.4426765,1492
1749980069.4427426,1204
1749980069.4428093,1020
1749980069.442875,1062
1749980069.4429414,1385
1749980069.4430077,1858
1749980069.4430766,2217
1749980069.4431431,2338
1749980069.4432094,2215
1749980069.4432766,1927
1749980069.443343,1581
1749980069.4434092,1284
1749980069.4434755,1072
1749980069.4435422,1055
1749980069.4436092,1320
1749980069.4436762,1778
1749980069.4437423,2167
1749980069.4438102,2330
1749980069.4438765,2245
1749980069.4439437,1981
1749980069.44401,1640
1749980069.4440787,1329
1749980069.4441466,1091
1749980069.4442165,1021
1749980069.4442835,1238
1749980069.4443495,1687
1749980069.4444163,2116
1749980069.4444842,2321
1749980069.4445527,2268
1749980069.4446213,2016
1749980069.4446888,1676
1749980069.4447591,1360
1749980069.4448285,1116
1749980069.4448962,1011
1749980069.444965,1172
1749980069.4450886,1585
1749980069.4451618,2031
1749980069.4452302,2284
1749980069.4452982,2286
1749980069.4453642,2065
1749980069.4454265,1730
1749980069.4635963,1398
1749980069.4637067,1142
1749980069.46381,1007
1749980069.4639134,1117
1749980069.464016,1481
1749980069.4641328,1920
1749980069.4642355,2201
1749980069.464338,2252
1749980069.46444,2075
1749980069.4645433,1762
1749980069.4646454,1420
1749980069.4647472,1147
1749980069.4648497,988
1749980069.464952,1072
1749980069.4650757,1428
1749980069.465178,1895
1749980069.4652798,2214
1749980069.4654813,2290
1749980069.4655871,2132
1749980069.4656897,1831
1749980069.5196517,1493
1749980069.559071,1212
1749980069.6099372,1024
1749980069.674917,1048
1749980069.6753895,1353
1749980069.678606,1818
1749980069.6791482,2178
1749980069.684264,2304
1749980069.6865895,2189
1749980069.6986654,1911
1749980069.7021482,1569
1749980069.7060149,1267
1749980069.706194,1047
1749980069.706385,1019
1749980069.7064886,1273
1749980069.7065904,1722
1749980069.7066927,2108
1749980069.7067947,2276
1749980069.707941,2204
1749980069.713614,1948
1749980069.713727,1605
1749980069.7643151,1289
1749980069.8095284,1057
1749980069.8165276,997
1749980069.849664,1213
1749980069.850293,1647
1749980069.8504045,2059
1749980069.8505242,2267
1749980069.850629,2235
1749980069.8507817,2002
1749980069.8508985,1661
1749980069.8513513,1331
1749980069.852675,1082
1749980069.8527856,989
1749980069.8528895,1169
1749980069.8529925,1593
1749980069.8530946,2041
1749980069.8531978,2292
1749980069.8533003,2295
1749980069.8534045,2082
1749980069.853521,1754
1749980069.8536248,1421
1749980069.8579638,1156
1749980069.8885057,1012
1749980069.8885972,1123
1749980069.8886795,1504
1749980069.8887565,1970
1749980069.8888416,2268
1749980069.8889186,2319
1749980069.8889961,2136
1749980069.889073,1819
1749980069.8891485,1477
1749980069.889226,1197
1749980069.8904202,1022
1749980069.8906012,1083
1749980069.8906825,1427
1749980069.8907647,1901
1749980069.8908532,2236
1749980069.89201,2327
1749980069.892114,2177
1749980069.8922122,1879
1749980069.8923147,1537
1749980069.8923926,1248
1749980069.8924701,1049
1749980069.8925476,1062
1749980069.892625,1363
1749980069.8955932,1836
1749980069.8956678,2208
1749980069.8957376,2338
1749980069.8958058,2219
1749980069.895872,1935
1749980069.895942,1593
1749980069.8960106,1296
1749980069.8960798,1076
1749980069.8961484,1039
1749980069.8962166,1287
1749980069.8962843,1743
1749980069.8963525,2146
1749980069.896421,2319
1749980069.8964927,2240
1749980069.89656,1979
1749980069.8966339,1644
1749980069.8967078,1341
1749980069.8967774,1109
1749980069.8968477,1033
1749980069.8969214,1234
1749980069.8969893,1672
1749980069.8970575,2103
1749980069.897126,2318
1749980069.897198,2277
1749980069.8972664,2033
1749980069.897335,1696
1749980069.8995333,1376
1749980069.8996441,1128
1749980069.8997178,1014
1749980069.89979,1168
1749980069.899862,1579
1749980069.8999343,2033
1749980069.9000068,2293
1749980069.9000785,2298
1749980069.9001505,2082
1749980069.9002233,1756
1749980069.9002955,1430
1749980069.900367,1174
1749980069.900439,1031
1749980069.9005113,1135
1749980069.900583,1510
1749980069.9006586,1975
1749980069.9007304,2276
1749980069.9008021,2330
1749980069.9008737,2147
1749980069.9009454,1832
1749980069.901017,1492
1749980069.9010887,1215
1749980069.901161,1039
1749980069.901233,1094
1749980069.9013052,1434
1749980069.9014943,1909
1749980069.9490392,2249
1749980069.9503818,2339
1749980069.9566865,2186
1749980069.9568121,1890
1749980069.9569216,1557
1749980069.9570289,1276
1749980069.957149,1076
1749980069.9572575,1083
1749980069.9573648,1387
1749980069.9576204,1871
1749980069.9577258,2246
1749980069.958629,2360
1749980069.9587412,2221
1749980069.958845,1938
1749980069.958948,1620
1749980069.9590518,1343
1749980069.9592972,1117
1749980069.959403,1058
1749980069.9595063,1302
1749980069.9596171,1792
1749980069.9597201,2240
1749980069.9598234,2434
1749980069.9599252,2343
1749980069.9600275,2058
1749980069.9601293,1711
1749980069.9605243,1404
1749980069.9609303,1163
1749980069.9610875,1066
1749980069.9612515,1248
1749980069.9641826,1682
1749980069.9642935,2121
1749980069.964399,2345
1749980069.964503,2307
1749980069.9646068,2067
1749980069.9647093,1736
1749980069.9648132,1419
1749980069.9649162,1166
1749980069.9676204,1040
1749980069.967732,1182
1749980069.9678698,1590
1749980069.9679856,2049
1749980069.9680903,2314
1749980069.9681945,2319
1749980069.9682987,2102
1749980069.9684136,1774
1749980069.968517,1442
1749980069.9686544,1178
1749980069.9713416,1025
1749980069.9714675,1123
1749980069.9715734,1498
1749980069.9716797,1970
1749980069.9718032,2278
1749980069.9719086,2335
1749980069.9720147,2153
1749980069.9721184,1834
1749980069.9722245,1488
1749980069.972329,1205
1749980069.9724324,1023
1749980069.9725363,1074
1749980069.972648,1410
1749980069.9727623,1885
1749980069.9736562,2231
1749980069.973766,2335
1749980069.97387,2195
1749980069.9739738,1899
1749980069.974078,1551
1749980069.974518,1253
1749980069.9802017,1044
1749980069.980315,1048
1749980069.980419,1342
1749980069.980523,1815
1749980069.980627,2193
1749980069.980732,2330
1749980069.9808357,2217
1749980069.980938,1938
1749980069.9810402,1595
1749980069.9811423,1291
1749980069.981255,1062
1749980069.9813583,1014
1749980069.9815078,1257
1749980069.9816108,1719
1749980069.981728,2136
1749980069.9903777,2323
1749980069.9905047,2254
1749980069.9906137,1995
1749980069.990724,1655
1749980069.9908288,1339
1749980069.9939957,1094
1749980069.9941564,1005
1749980069.994292,1200
1749980069.994508,1640
1749980069.994665,2081
1749980069.9947712,2307
1749980069.9948754,2274
1749980070.0146284,2035
1749980070.0276098,1700
1749980070.0455372,1374
1749980070.0458736,1118
1749980070.0463064,996
1749980070.0466368,1143
1749980070.0469737,1558
1749980070.0521035,2025
1749980070.0527406,2300
1749980070.0535533,2316
1749980070.0780966,2106
1749980070.0785384,1777
1749980070.0786142,1440
1749980070.0786867,1170
1749980070.0989954,1016
1749980070.1004207,1113
1749980070.1009579,1489
1749980070.101033,1964
1749980070.1018624,2278
1749980070.101945,2339
1749980070.102023,2163
1749980070.1021004,1853
1749980070.1021786,1514
1749980070.1022565,1232
1749980070.1023211,1042
1749980070.1023886,1081
1749980070.1024654,1408
1749980070.1025426,1884
1749980070.10262,2235
1749980070.1026967,2339
1749980070.102773,2195
1749980070.10285,1897
1749980070.1029267,1553
1749980070.1030037,1264
1749980070.103081,1062
1749980070.1031616,1063
1749980070.1032386,1352
1749980070.1396787,1824
1749980070.1708975,2211
1749980070.170975,2361
1749980070.1710544,2257
1749980070.171129,1975
1749980070.1712034,1624
1749980070.1712773,1315
1749980070.1713514,1094
1749980070.1714258,1051
1749980070.1715007,1285
1749980070.1722367,1726
1749980070.1791368,2129
1749980070.179244,2320
1749980070.2161884,2267
1749980070.2192883,2018
1749980070.2193756,1669
1749980070.219447,1336
1749980070.2195175,1086
1749980070.2196453,1005
1749980070.2197225,1212
1749980070.2197928,1658
1749980070.2201,2102
1749980070.2201705,2330
1749980070.22024,2301
1749980070.2203078,2063
1749980070.2203772,1724
1749980070.2204442,1392
1749980070.2205136,1131
1749980070.2205825,1001
1749980070.2206516,1140
1749980070.2207215,1548
1749980070.2207894,2014
1749980070.2208571,2292
1749980070.2209249,2313
1749980070.220993,2106
1749980070.2210631,1779
1749980070.221133,1440
1749980070.221202,1165
1749980070.2212715,1001
1749980070.2213361,1090
1749980070.221399,1461
1749980070.2214677,1939
1749980070.221535,2260
1749980070.2216032,2328
1749980070.2216716,2153
1749980070.2217581,1837
1749980070.2218285,1486
1749980070.2218986,1197
1749980070.2219675,1012
1749980070.222037,1056
1749980070.2221053,1382
1749980070.2221746,1851
1749980070.2222452,2200
1749980070.2223146,2313
1749980070.2223828,2183
1749980070.2224517,1890
1749980070.2225199,1534
1749980070.222765,1227
1749980070.222833,1019
1749980070.2229018,1025
1749980070.22297,1317
1749980070.223039,1786
1749980070.2231102,2169
1749980070.2231789,2322
1749980070.223249,2227
1749980070.2233186,1950
1749980070.2233877,1592
1749980070.232737,1270
1749980070.2338874,1041
1749980070.2339606,1005
1749980070.2340293,1257
1749980070.2340958,1718
1749980070.2341616,2133
1749980070.2342296,2324
1749980070.2342958,2265
1749980070.234362,2010
1749980070.2344272,1662
1749980070.2344928,1334
1749980070.2345593,1084
1749980070.234625,991
1749980070.2346907,1171
1749980070.2347567,1590
1749980070.2348225,2021
1749980070.2349005,2260
1749980070.2349663,2255
1749980070.2434175,2035
1749980070.24351,1696
1749980070.2435813,1352
1749980070.2436502,1086
1749980070.245306,966
1749980070.2489214,1121
1749980070.248996,1540
1749980070.249065,2007
1749980070.2491338,2283
1749980070.2492552,2302
1749980070.2493224,2095
1749980070.2493904,1766
1749980070.2494566,1425
1749980070.2495224,1151
1749980070.2495887,992
1749980070.2496593,1080
1749980070.2497287,1447
1749980070.2497973,1922
1749980070.2498643,2245
1749980070.2499325,2319
1749980070.2499995,2149
1749980070.2500665,1833
1749980070.250133,1482
1749980070.2501993,1197
1749980070.2502677,1015
1749980070.250333,1055
1749980070.2504005,1369
1749980070.2504666,1829
1749980070.2505333,2176
1749980070.2506018,2295
1749980070.250667,2173
1749980070.2507346,1884
1749980070.2508001,1527
1749980070.2508655,1216
1749980070.2509308,1001
1749980070.250997,1001
1749980070.2510633,1296
1749980070.2511296,1775
1749980070.2511966,2166
1749980070.251665,2315
1749980070.2527068,2210
1749980070.2527802,1928
1749980070.2528481,1580
1749980070.2529154,1271
1749980070.2594476,1044
1749980070.2595203,992
1749980070.2595892,1226
1749980070.2596574,1684
1749980070.259778,2113
1749980070.259848,2319
1749980070.2599175,2266
1749980070.2599854,2012
1749980070.260052,1666
1749980070.2601182,1344
1749980070.2601864,1096
1749980070.2602558,1000
1749980070.2603235,1180
1749980070.26039,1612
1749980070.2604704,2062
1749980070.2605376,2309
1749980070.2606049,2297
1749980070.2606714,2068
1749980070.2607386,1731
1749980070.2608058,1398
1749980070.2608747,1134
1749980070.2609415,1000
1749980070.2610087,1132
1749980070.2610753,1535
1749980070.2611423,2003
1749980070.261209,2287
1749980070.2612772,2313
1749980070.2613406,2111
1749980070.2615297,1790
1749980070.2616324,1456
1749980070.2617247,1183
1749980070.2617953,1014
1749980070.2618647,1094
1749980070.2619348,1461
1749980070.262004,1945
1749980070.2620723,2269
1749980070.2621393,2333
1749980070.262205,2154
1749980070.2623696,1841
1749980070.262452,1502
1749980070.2625227,1221
1749980070.2625906,1028
1749980070.2626586,1053
1749980070.262726,1369
1749980070.2627945,1846
1749980070.262862,2208
1749980070.2629304,2324
1749980070.2629988,2190
1749980070.263066,1896
1749980070.2631357,1549
1749980070.2632053,1249
1749980070.263274,1033
1749980070.2633414,1018
1749980070.2634099,1295
1749980070.2634776,1767
1749980070.2635436,2160
1749980070.2636096,2315
1749980070.2636766,2219
1749980070.2637434,1947
1749980070.26698,1603
1749980070.2672076,1291
1749980070.2672858,1054
1749980070.2788544,995
1749980070.2789721,1229
1749980070.279078,1689
1749980070.2791827,2116
1749980070.2792907,2314
1749980070.2793949,2258
1749980070.2794988,2009
1749980070.2956011,1672
1749980070.2996736,1353
1749980070.3003778,1103
1749980070.320188,1001
1749980070.3202999,1182
1749980070.3287542,1616
1749980070.3602672,2070
1749980070.3855968,2314
1749980070.385715,2301
1749980070.3858202,2073
1749980070.3859668,1742
1749980070.3860707,1412
1749980070.386174,1149
1749980070.3863692,1012
1749980070.3864732,1140
1749980070.3865767,1540
1749980070.38668,2008
1749980070.3867836,2291
1749980070.386887,2316
1749980070.38699,2111
1749980070.3870938,1789
1749980070.3871973,1453
1749980070.3873014,1180
1749980070.3874052,1010
1749980070.3875082,1081
1749980070.3876119,1437
1749980070.3877153,1915
1749980070.3897774,2245
1749980070.3898878,2321
1749980070.3960676,2152
1749980070.3965974,1839
1749980070.396937,1492
1749980070.4081728,1204
1749980070.4640343,1013
1749980070.4964457,1044
1749980070.4998913,1361
1749980070.4999888,1837
1749980070.5000792,2196
1749980070.5001667,2312
1749980070.5002556,2180
1749980070.500345,1890
1749980070.5004394,1548
1749980070.5005236,1254
1749980070.5006084,1042
1749980070.5014782,1023
1749980070.5015683,1289
1749980070.501656,1753
1749980070.5017633,2149
1749980070.5018504,2313
1749980070.5019448,2222
1749980070.5020356,1951
1749980070.502127,1606
1749980070.5022168,1296
1749980070.5022967,1063
1749980070.502373,999
1749980070.5024638,1219
1749980070.5025547,1670
1749980070.5026457,2101
1749980070.5027356,2311
1749980070.50449,2262
1749980070.5046422,2010
1749980070.5047333,1666
1749980070.504823,1347
1749980070.5051067,1106
1749980070.5082002,1009
1749980070.592168,1181
1749980070.6043935,1602
1749980070.6302104,2051
1749980070.6684194,2303
1749980070.6684926,2301
1749980070.6685677,2075
1749980070.6902502,1734
1749980070.6903296,1399
1749980070.698137,1144
1749980070.6986215,1017
1749980070.7032387,1139
1749980070.7033217,1514
1749980070.7033987,1963
1749980070.704038,2252
1749980070.7136445,2302
1749980070.726622,2117
1749980070.7288182,1786
1749980070.7288961,1428
1749980070.7289636,1143
1749980070.729032,981
1749980070.7291017,1066
1749980070.7291694,1426
1749980070.7293172,1898
1749980070.7293773,2227
1749980070.7294443,2314
1749980070.7295113,2156
1749980070.729579,1846
1749980070.7296453,1491
1749980070.7359517,1196
1749980070.7360246,1002
1749980070.7360954,1033
1749980070.7361636,1352
1749980070.7362335,1831
1749980070.7363024,2199
1749980070.736372,2323
1749980070.7364454,2196
1749980070.7365136,1903
1749980070.7365813,1550
1749980070.738586,1243
1749980070.7386658,1022
1749980070.7387388,1000
1749980070.7388086,1271
1749980070.738876,1742
1749980070.7389448,2147
1749980070.739014,2320
1749980070.739083,2237
1749980070.7391524,1964
1749980070.7392194,1611
1749980070.739288,1292
1749980070.7419536,1055
1749980070.7420285,988
1749980070.7420967,1197
1749980070.7421641,1629
1749980070.7422254,2047
1749980070.7422879,2266
1749980070.7423553,2241
1749980070.7424295,2003
1749980070.7425036,1650
1749980070.7425773,1303
1749980070.7426512,1044
1749980070.7427256,956
1749980070.7427995,1155
1749980070.7428737,1597
1749980070.7429478,2050
1749980070.7430217,2294
1749980070.743096,2286
1749980070.7431698,2062
1749980070.7432446,1724
1749980070.7433186,1378
1749980070.7433925,1103
1749980070.7434669,962
1749980070.7435408,1089
1749980070.7436152,1488
1749980070.7436893,1961
1749980070.7437632,2254
1749980070.743837,2293
1749980070.743911,2100
1749980070.7439845,1777
1749980070.7440584,1432
1749980070.7441423,1149
1749980070.7442167,975
1749980070.74429,1047
1749980070.7443635,1406
1749980070.744437,1891
1749980070.7445107,2232
1749980070.7445848,2321
1749980070.744658,2160
1749980070.7447314,1847
1749980070.744805,1490
1749980070.7448785,1192
1749980070.7449527,993
1749980070.7466125,1020
1749980070.7648563,1342
1749980070.7649696,1830
1749980070.7650895,2207
1749980070.7652104,2336
1749980070.7653182,2208
1749980070.7654245,1913
1749980070.76553,1559
1749980070.7656484,1251
1749980070.7660673,1032
1749980070.766176,1012
1749980070.772805,1286
1749980070.772929,1761
1749980070.7730103,2168
1749980070.7730887,2337
1749980070.773167,2247
1749980070.7732453,1972
1749980070.7733238,1618
1749980070.7734013,1296
1749980070.7734606,1055
1749980070.773532,990
1749980070.7736175,1217
1749980070.773695,1678
1749980070.7737722,2119
1749980070.773849,2335
1749980070.7739255,2289
1749980070.7740023,2039
1749980070.774079,1694
1749980070.7741559,1362
1749980070.774232,1103
1749980070.7742984,994
1749980070.7743623,1169
1749980070.7744389,1606
1749980070.7745159,2074
1749980070.774593,2334
1749980070.77467,2331
1749980070.774747,2105
1749980070.7748241,1770
1749980070.7749007,1435
1749980070.7749774,1165
1749980070.7809148,1016
1749980070.7809904,1128
1749980070.781086,1519
1749980070.7811632,1996
1749980070.7812402,2300
1749980070.7813172,2342
1749980070.7815018,2141
1749980070.7815793,1809
1749980070.7816558,1462
1749980070.7817435,1186
1749980070.7818217,1019
1749980070.7818959,1090
1749980070.781989,1443
1749980070.7820659,1925
1749980070.7821424,2268
1749980070.7822187,2360
1749980070.7823915,2201
1749980070.7824686,1889
1749980070.7825456,1537
1749980070.7826228,1242
1749980070.7827,1041
1749980070.782777,1058
1749980070.7828763,1367
1749980070.7829533,1848
1749980070.7830298,2227
1749980070.783106,2357
1749980070.7831829,2229
1749980070.7832723,1933
1749980070.783349,1582
1749980070.7834284,1280
1749980070.783495,1061
1749980070.7835605,1032
1749980070.7836254,1294
1749980070.7837071,1765
1749980070.7837844,2179
1749980070.783861,2357
1749980070.7839372,2271
1749980070.7840137,1992
1749980070.78409,1636
1749980070.7841802,1318
1749980070.784256,1081
1749980070.7843323,1013
1749980070.7844083,1227
1749980070.7844841,1675
1749980070.784572,2111
1749980070.7846487,2331
1749980070.7847247,2291
1749980070.7848012,2043
1749980070.7848773,1697
1749980070.7849538,1366
1749980070.785493,1111
1749980070.7855713,1002
1749980070.785648,1170
1749980070.7857249,1597
1749980070.785801,2059
1749980070.7859046,2321
1749980070.7859821,2322
1749980070.7860594,2096
1749980070.7861362,1758
1749980070.7862146,1423
1749980070.7864146,1158
1749980070.7864928,1014
1749980070.7865694,1125
1749980070.7866464,1510
1749980070.7912774,1984
1749980070.7914112,2291
1749980070.7915194,2343
1749980070.7916377,2154
1749980070.791751,1829
1749980070.8153057,1483
1749980070.8153913,1203
1749980070.8154695,1032
1749980070.8155649,1099
1749980070.8156457,1449
1749980070.8157227,1927
1749980070.8158,2266
1749980070.815878,2355
1749980070.8159552,2197
1749980070.816047,1885
1749980070.8161247,1532
1749980070.816204,1237
1749980070.8162813,1040
1749980070.8163583,1062
1749980070.8164487,1372
1749980070.8165264,1850
1749980070.8166037,2225
1749980070.8166807,2359
1749980070.816758,2240
1749980070.8168352,1953
1749980070.8169367,1602
1749980070.8170178,1294
1749980070.8170953,1072
1749980070.817172,1044
1749980070.8172495,1306
1749980070.8173394,1775
1749980070.8174095,2184
1749980070.8174865,2362
1749980070.8175635,2281
1749980070.8176408,2011
1749980070.8177176,1657
1749980070.817808,1331
1749980070.8178854,1085
1749980070.8179626,1014
1749980070.8180397,1237
1749980070.8181164,1701
1749980070.8182049,2147
1749980070.8182786,2366
1749980070.818341,2319
1749980070.818433,2069
1749980070.8185105,1727
1749980070.8185873,1397
1749980070.818678,1133
1749980070.8187556,1010
1749980070.8188372,1172
1749980070.8189144,1606
1749980070.8192146,2079
1749980070.8192923,2343
1749980070.8193698,2339
1749980070.8194468,2115
1749980070.8195372,1787
1749980070.8196144,1455
1749980070.8196914,1181
1749980070.8197687,1020
1749980070.8198452,1126
1749980070.8302748,1525
1749980070.8303585,2016
1749980070.8304286,2324
1749980070.8325462,2362
1749980070.8326194,2159
1749980070.8326864,1834
1749980070.8327532,1496
1749980070.8328187,1219
1749980070.8328846,1034
1749980070.8329506,1082
1749980070.8330173,1420
1749980070.8330834,1900
1749980070.8331497,2247
1749980070.8332155,2342
1749980070.8332825,2186
1749980070.8333428,1877
1749980070.8334098,1526
1749980070.8334756,1232
1749980070.8335416,1032
1749980070.833608,1048
1749980070.8336751,1354
1749980070.833742,1831
1749980070.8338075,2207
1749980070.8338735,2338
1749980070.8339398,2217
1749980070.834006,1930
1749980070.8340716,1585
1749980070.8341382,1285
1749980070.8342016,1065
1749980070.8412251,1033
1749980070.8413036,1291
1749980070.8413634,1762
1749980070.841428,2177
1749980070.8515544,2355
1749980070.8642588,2271
1749980070.864345,1999
1749980070.8644133,1652
1749980070.864481,1340
1749980070.8648386,1103
1749980070.8649116,1023
1749980070.8649776,1225
1749980070.9186668,1668
1749980070.9189603,2106
1749980070.919039,2328
1749980070.9191184,2289
1749980070.9218829,2042
1749980070.9230285,1700
1749980070.9238932,1373
1749980070.952235,1117
1749980070.9784603,1000
1749980070.9791794,1156
1749980070.9795156,1574
1749980070.9796016,2035
1749980070.979694,2299
1749980070.9798055,2306
1749980070.9798925,2090
1749980070.979978,1761
1749980070.9800758,1429
1749980070.9801605,1163
1749980070.9802504,1016
1749980070.9804573,1124
1749980070.9813447,1508
1749980070.9892926,1979
1749980070.98973,2279
1749980070.9900227,2325
1749980070.9901001,2138
1749980070.9901783,1822
1749980070.9907334,1483
1749980070.990808,1203
1749980070.9908817,1023
1749980070.9909587,1078
1749980070.991032,1421
1749980070.9912105,1901
1749980070.9912865,2245
1749980070.9913566,2339
1749980070.9914267,2189
1749980070.9914966,1890
1749980070.9915638,1548
1749980070.9916337,1259
1749980070.9917436,1057
1749980070.9918146,1066
1749980070.991886,1365
1749980070.9919558,1838
1749980070.992024,2214
1749980070.9920943,2351
1749980070.9921622,2237
1749980070.992231,1955
1749980070.992299,1609
1749980070.9923668,1306
1749980070.992434,1085
1749980070.992504,1052
1749980070.9925709,1306
1749980070.9926376,1768
1749980070.9927046,2175
1749980070.9927716,2355
1749980070.9928393,2284
1749980070.9929051,2024
1749980070.9929726,1681
1749980070.99304,1364
1749980070.9931097,1126
1749980071.05869,1052
1749980071.0649111,1259
1749980071.07249,1698
1749980071.0726662,2127
1749980071.0738049,2343
1749980071.0738852,2311
1749980071.073961,2075
1749980071.0740383,1740
1749980071.0741136,1412
1749980071.07419,1155
1749980071.0742624,1039
1749980071.0743248,1195
1749980071.0827227,1610
1749980071.0828402,2065
1749980071.0829468,2327
1749980071.0830512,2338
1749980071.0831552,2130
1749980071.0832584,1806
1749980071.0833626,1473
1749980071.083467,1204
1749980071.0836005,1051
1749980071.0837057,1152
1749980071.0838091,1529
1749980071.083912,1999
1749980071.0840154,2303
1749980071.0841186,2355
1749980071.0842216,2170
1749980071.0843344,1851
1749980071.0844376,1506
1749980071.0845406,1226
1749980071.0888686,1049
1749980071.0889778,1102
1749980071.089083,1435
1749980071.0891871,1904
1749980071.089263,2242
1749980071.0893335,2340
1749980071.089404,2196
1749980071.0894742,1899
1749980071.0895448,1554
1749980071.0896146,1262
1749980071.089685,1061
1749980071.0897546,1069
1749980071.0898242,1365
1749980071.0898943,1834
1749980071.089964,2208
1749980071.090034,2343
1749980071.0901043,2231
1749980071.090179,1953
1749980071.0902493,1613
1749980071.090309,1311
1749980071.090376,1085
1749980071.090944,1039
1749980071.091484,1285
1749980071.0998309,1749
1749980071.1062057,2169
1749980071.1072762,2357
1749980071.1076534,2286
1749980071.1077638,2023
1749980071.1078799,1682
1749980071.1079867,1372
1749980071.1081076,1134
1749980071.1082158,1048
1749980071.1083977,1237
1749980071.1085224,1670
1749980071.1086407,2109
1749980071.1094036,2341
1749980071.1107578,2316
1749980071.1108527,2079
1749980071.111753,1739
1749980071.1118407,1410
1749980071.1119206,1154
1749980071.111999,1033
1749980071.112077,1178
1749980071.1121557,1584
1749980071.112239,2037
1749980071.1123254,2299
1749980071.1124032,2307
1749980071.1124816,2094
1749980071.1125598,1771
1749980071.1126394,1446
1749980071.1127262,1186
1749980071.112805,1032
1749980071.1128817,1126
1749980071.112959,1500
1749980071.1130376,1979
1749980071.113117,2294
1749980071.113192,2351
1749980071.1133265,2168
1749980071.113398,1855
1749980071.113482,1516
1749980071.1135583,1227
1749980071.1136346,1029
1749980071.1137106,1078
1749980071.1137946,1447
1749980071.1139417,1974
1749980071.115734,2343
1749980071.1164975,2419
1749980071.11699,2235
1749980071.1173863,1933
1749980071.1177845,1618
1749980071.1181483,1338
1749980071.118583,1097
1749980071.1189294,1053
1749980071.119272,1349
1749980071.1196115,1883
1749980071.1200054,2320
1749980071.120391,2454
1749980071.1205823,2298
1749980071.1211174,2000
1749980071.1709514,1686
1749980071.1710486,1403
1749980071.1711235,1140
1749980071.1711922,1032
1749980071.171262,1265
1749980071.1713278,1790
1749980071.1713943,2275
1749980071.1714635,2462
1749980071.1715338,2338
1749980071.1719227,2050
1749980071.1719966,1744
1749980071.1720648,1469
1749980071.172133,1204
1749980071.1722376,1051
1749980071.1723077,1223
1749980071.1723747,1723
1749980071.1724439,2245
1749980071.1728778,2483
1749980071.1729517,2394
1749980071.173019,2114
1749980071.1730857,1810
1749980071.1731539,1538
1749980071.1732237,1271
1749980071.1732914,1072
1749980071.1733527,1169
1749980071.1734147,1622
1749980071.1734827,2165
1749980071.1735482,2455
1749980071.1736145,2408
1749980071.1736834,2141
1749980071.1737502,1838
1749980071.173819,1565
1749980071.1738863,1301
1749980071.1739538,1075
1749980071.1740193,1111
1749980071.1740885,1518
1749980071.1741562,2082
1749980071.1742177,2429
1749980071.1742802,2431
1749980071.1743462,2182
1749980071.174413,1876
1749980071.1744788,1602
1749980071.1745477,1348
1749980071.174617,1107
1749980071.1746888,1083
1749980071.174757,1430
1749980071.1748247,1993
1749980071.1748898,2395
1749980071.174955,2455
1749980071.175039,2235
1749980071.1751108,1929
1749980071.1751792,1649
1749980071.1752474,1399
1749980071.175312,1149
1749980071.1753795,1071
1749980071.1754456,1350
1749980071.1755135,1894
1749980071.1755807,2340
1749980071.175646,2457
1749980071.1757147,2275
1749980071.1757817,1974
1749980071.1758482,1686
1749980071.1759148,1434
1749980071.176378,1180
1749980071.176701,1057
1749980071.1767745,1274
1749980071.1768425,1796
1749980071.1769092,2281
1749980071.1769788,2453
1749980071.177049,2309
1749980071.1771216,2011
1749980071.1771922,1716
1749980071.1772592,1463
1749980071.177323,1209
1749980071.177382,1046
1749980071.177448,1194
1749980071.177515,1674
1749980071.1775835,2189
1749980071.1776497,2426
1749980071.1777163,2336
1749980071.1777828,2053
1749980071.1778522,1750
1749980071.17792,1491
1749980071.1779888,1245
1749980071.1780548,1054
1749980071.178124,1133
1749980071.1781893,1551
1749980071.1782486,2067
1749980071.178313,2353
1749980071.2004235,2320
1749980071.200539,2065
1749980071.2006474,1761
1749980071.2007527,1490
1749980071.2008579,1242
1749980071.2009633,1040
1749980071.2010686,1094
1749980071.2011728,1504
1749980071.2012763,2060
1749980071.2013795,2397
1749980071.2014852,2391
1749980071.2015898,2137
1749980071.207399,1831
1749980071.2075684,1560
1749980071.2077298,1308
1749980071.2079012,1066
1749980071.2080822,1038
1749980071.2082436,1386
1749980071.2084131,1958
1749980071.2085953,2374
1749980071.2087731,2441
1749980071.2089598,2219
1749980071.2091472,1904
1749980071.2093446,1623
1749980071.2103555,1389
1749980071.210637,1152
1749980071.2109709,1045
1749980071.224448,1237
1749980071.2406533,1683
1749980071.2456262,2089
1749980071.2457366,2253
1749980071.2478228,2144
1749980071.2480204,1860
1749980071.248187,1527
1749980071.2483997,1244
1749980071.2485983,1037
1749980071.2487917,995
1749980071.24896,1231
1749980071.249598,1683
1749980071.2524729,2088
1749980071.2553957,2259
1749980071.2555757,2177
1749980071.2556486,1911
1749980071.25572,1576
1749980071.2557874,1276
1749980071.255902,1056
1749980071.2581432,980
1749980071.3089952,1166
1749980071.309923,1585
1749980071.3121254,2012
1749980071.318191,2239
1749980071.3257177,2219
1749980071.3453026,1991
1749980071.3946402,1659
1749980071.3948226,1339
1749980071.3949478,1098
1749980071.3950636,985
1749980071.395169,1117
1749980071.3952737,1490
1749980071.3953955,1919
1749980071.395499,2187
1749980071.3956025,2226
1749980071.3957057,2040
1749980071.3958244,1715
1749980071.395929,1364
1749980071.3960347,1090
1749980071.3961384,947
1749980071.3962572,1053
1749980071.3963609,1417
1749980071.3964639,1873
1749980071.396567,2181
1749980071.408254,2256
1749980071.4233594,2099
1749980071.4867678,1790
1749980071.4868984,1435
1749980071.4870048,1144
1749980071.4941404,964
1749980071.494259,1019
1749980071.5019455,1354
1749980071.5168543,1829
1749980071.5222137,2181
1749980071.5223258,2295
1749980071.5400665,2168
1749980071.5608227,1880
1749980071.6052778,1532
1749980071.6074514,1230
1749980071.607798,1015
1749980071.6079366,1004
1749980071.6080434,1280
1749980071.608149,1745
1749980071.6082664,2135
1749980071.6083968,2297
1749980071.6085036,2210
1749980071.6086087,1940
1749980071.6087267,1590
1749980071.6088328,1273
1749980071.608938,1038
1749980071.6090431,975
1749980071.609159,1189
1749980071.6092768,1619
1749980071.6093822,2026
1749980071.6094873,2230
1749980071.6096048,2193
1749980071.6097097,1950
1749980071.609815,1599
1749980071.6099193,1262
1749980071.6100354,1014
1749980071.61014,936
1749980071.6102448,1142
1749980071.6103497,1586
1749980071.6104662,2030
1749980071.6105711,2261
1749980071.6106763,2242
1749980071.6107814,2015
1749980071.6108978,1683
1749980071.6110044,1353
1749980071.6111097,1089
1749980071.6112273,953
1749980071.6113436,1083
1749980071.611449,1486
1749980071.6115444,1959
1749980071.6116168,2251
1749980071.611731,2287
1749980071.611802,2087
1749980071.6118724,1759
1749980071.6119428,1415
1749980071.612013,1137
1749980071.6120837,971
1749980071.612154,1054
1749980071.6122255,1421
1749980071.612296,1906
1749980071.6123657,2242
1749980071.6124363,2325
1749980071.6125064,2159
1749980071.612576,1842
1749980071.6126459,1485
1749980071.6127145,1189
1749980071.6127892,995
1749980071.6128592,1027
1749980071.6129298,1346
1749980071.6129997,1823
1749980071.613069,2191
1749980071.6131465,2320
1749980071.6132178,2195
1749980071.6132889,1899
1749980071.6133606,1543
1749980071.6134317,1241
1749980071.6135035,1034
1749980071.6135747,1024
1749980071.6136458,1289
1749980071.613717,1737
1749980071.6137881,2116
1749980071.6138592,2279
1749980071.6139495,2197
1749980071.6140215,1930
1749980071.6140938,1577
1749980071.6141653,1257
1749980071.6142364,1025
1749980071.6143079,977
1749980071.6143932,1214
1749980071.614465,1673
1749980071.6145365,2100
1749980071.6146078,2304
1749980071.6146798,2250
1749980071.6147518,1993
1749980071.6148374,1644
1749980071.614909,1318
1749980071.61498,1073
1749980071.615059,977
1749980071.615135,1155
1749980071.61522,1583
1749980071.615292,2032
1749980071.6153634,2281
1749980071.6154344,2272
1749980071.6155057,2043
1749980071.6155767,1703
1749980071.6156604,1367
1749980071.615732,1105
1749980071.6158042,973
1749980071.6158757,1100
1749980071.6159472,1495
1749980071.6160185,1961
1749980071.6161249,2255
1749980071.6161966,2298
1749980071.6162674,2103
1749980071.616338,1771
1749980071.616408,1420
1749980071.6164787,1144
1749980071.6165488,987
1749980071.6166198,1068
1749980071.6166904,1412
1749980071.6167607,1866
1749980071.6168313,2185
1749980071.6169016,2275
1749980071.622982,2125
1749980071.6967885,1814
1749980071.6970599,1451
1749980071.697132,1155
1749980071.6972027,976
1749980071.69727,1027
1749980071.697341,1350
1749980071.6988225,1813
1749980071.6989021,2166
1749980071.6989758,2293
1749980071.6990492,2180
1749980071.69912,1892
1749980071.6991932,1529
1749980071.6992662,1214
1749980071.6993396,1003
1749980071.699413,1010
1749980071.6999788,1306
1749980071.700245,1784
1749980071.7003753,2181
1749980071.7004387,2345
1749980071.700507,2260
1749980071.700579,1995
1749980071.700651,1650
1749980071.7007222,1332
1749980071.7007933,1092
1749980071.7008657,1029
1749980071.707283,1254
1749980071.7073643,1708
1749980071.707438,2138
1749980071.7075121,2350
1749980071.707585,2307
1749980071.7372098,2062
1749980071.7424774,1717
1749980071.749819,1383
1749980071.7498996,1123
1749980071.749977,1018
1749980071.7500525,1196
1749980071.79188,1627
1749980071.7960024,2078
1749980071.803447,2327
1749980071.8043594,2323
1749980071.8044395,2101
1749980071.8045173,1762
1749980071.804596,1418
1749980071.8046718,1146
1749980071.8047454,1007
1749980071.8048193,1130
1749980071.8048928,1515
1749980071.804966,1970
1749980071.805074,2259
1749980071.805149,2308
1749980071.8052227,2126
1749980071.8052962,1804
1749980071.8053672,1452
1749980071.8054297,1173
1749980071.8054905,1018
1749980071.8055615,1106
1749980071.805633,1460
1749980071.805704,1919
1749980071.805776,2238
1749980071.8058593,2325
1749980071.8059306,2172
1749980071.8060021,1861
1749980071.8060737,1500
1749980071.806145,1203
1749980071.8062162,1019
1749980071.8062813,1060
1749980071.8063457,1373
1749980071.806417,1834
1749980071.80649,2191
1749980071.8065612,2324
1749980071.8068185,2214
1749980071.8068898,1927
1749980071.806961,1565
1749980071.8070326,1245
1749980071.8071048,1028
1749980071.8071759,1027
1749980071.8072464,1319
1749980071.8073173,1801
1749980071.8073878,2201
1749980071.807459,2363
1749980071.8075304,2271
1749980071.8076024,2001
1749980071.8076735,1654
1749980071.807746,1335
1749980071.8078275,1087
1749980071.8078997,1011
1749980071.8079708,1230
1749980071.8080344,1691
1749980071.8081055,2137
1749980071.8167875,2357
1749980071.8426967,2311
1749980071.9049034,2059
1749980071.9061553,1715
1749980071.9062507,1386
1749980071.906336,1128
1749980071.9064212,1016
1749980071.906525,1186
1749980071.9066088,1620
1749980071.9066918,2084
1749980071.9067743,2342
1749980071.9068584,2335
1749980071.9070148,2104
1749980071.907098,1764
1749980071.9071805,1428
1749980071.9072628,1163
1749980071.907366,1018
1749980071.9074485,1124
1749980071.9075305,1500
1749980071.9076133,1960
1749980071.9076955,2257
1749980071.9077935,2310
1749980071.9078758,2126
1749980071.907958,1803
1749980071.9080396,1453
1749980071.9081218,1168
1749980071.9082189,1003
1749980071.9083023,1099
1749980071.908409,1488
1749980071.9084914,1993
1749980071.9085734,2329
1749980071.919762,2392
1749980071.9199307,2210
1749980071.9200041,1904
1749980071.9201968,1576
1749980071.9202802,1291
1749980071.9203935,1069
1749980071.9211988,1057
1749980071.9212732,1362
1749980071.9213436,1869
1749980071.921405,2271
1749980071.9214764,2399
1749980071.9215472,2255
1749980071.921618,1963
1749980071.9216876,1641
1749980071.921831,1354
1749980071.921959,1113
1749980071.922062,1058
1749980071.9221642,1338
1749980071.928268,1872
1749980071.9468567,2331
1749980072.0043185,2490
1749980072.016515,2350
1749980072.0166106,2056
1749980072.0167003,1746
1749980072.0167897,1468
1749980072.0168784,1206
1749980072.0172546,1072
1749980072.035497,1269
1749980072.1262014,1780
1749980072.1650836,2287
1749980072.2203653,2504
1749980072.220598,2399
1749980072.220698,2113
1749980072.2207851,1805
1749980072.2328043,1531
1749980072.232956,1261
1749980072.2334008,1076
1749980072.2335215,1199
1749980072.2336397,1671
1749980072.2337587,2210
1749980072.2390304,2483
1749980072.239246,2421
1749980072.2393544,2146
1749980072.2466838,1835
1749980072.2537808,1560
1749980072.253856,1297
1749980072.2539277,1087
1749980072.2539988,1153
1749980072.2540808,1579
1749980072.2541478,2132
1749980072.2542102,2453
1749980072.2542784,2436
1749980072.2554693,2181
1749980072.2555482,1873
1749980072.255618,1596
1749980072.2556884,1337
1749980072.2557597,1104
1749980072.25583,1108
1749980072.2558978,1477
1749980072.2559662,2031
1749980072.2560349,2401
1749980072.2561057,2435
1749980072.256173,2205
1749980072.2562416,1899
1749980072.256312,1618
1749980072.2563787,1360
1749980072.256446,1109
1749980072.256514,1056
1749980072.2565844,1366
1749980072.2566514,1920
1749980072.257105,2344
1749980072.2618055,2434
1749980072.2618816,2232
1749980072.2619655,1923
1749980072.2620332,1635
1749980072.2621028,1386
1749980072.2621727,1141
1749980072.2622347,1049
1749980072.2623007,1300
1749980072.262395,1834
1749980072.2625823,2301
1749980072.2627606,2454
1749980072.285185,2298
1749980072.326762,1998
1749980072.3280845,1697
1749980072.3837671,1432
1749980072.4126163,1171
1749980072.4428942,1027
1749980072.460977,1211
1749980072.4753356,1711
1749980072.478665,2210
1749980072.479691,2418
1749980072.4797816,2304
1749980072.4798553,2013
1749980072.5222955,1708
1749980072.5223765,1449
1749980072.52245,1202
1749980072.522523,1028
1749980072.5225954,1139
1749980072.5226684,1583
1749980072.522741,2101
1749980072.522814,2374
1749980072.5228877,2324
1749980072.522965,2053
1749980072.5230405,1736
1749980072.523116,1460
1749980072.523191,1213
1749980072.523266,1023
1749980072.5233407,1089
1749980072.523424,1495
1749980072.523499,2030
1749980072.5235746,2352
1749980072.5236487,2348
1749980072.5237238,2098
1749980072.5237982,1780
1749980072.5238736,1493
1749980072.523949,1243
1749980072.524024,1035
1749980072.5240998,1058
1749980072.5241752,1429
1749980072.5242503,1982
1749980072.5243256,2361
1749980072.5244002,2408
1749980072.5282278,2180
1749980072.5283175,1858
1749980072.528415,1563
1749980072.5285323,1322
1749980072.5286136,1102
1749980072.5286927,1037
1749980072.5287747,1268
1749980072.528853,1721
1749980072.5289726,2110
1749980072.529054,2254
1749980072.5291326,2129
1749980072.5292058,1834
1749980072.529284,1492
1749980072.529364,1206
1749980072.5294418,1002
1749980072.5295212,980
1749980072.5295992,1238
1749980072.529677,1696
1749980072.529755,2090
1749980072.529833,2247
1749980072.5299108,2150
1749980072.5299888,1873
1749980072.5300665,1528
1749980072.5301447,1225
1749980072.5302224,1005
1749980072.5303006,946
1749980072.5303783,1162
1749980072.5304558,1603
1749980072.5305333,2028
1749980072.5306127,2237
1749980072.5306914,2194
1749980072.5307653,1948
1749980072.5308356,1610
1749980072.5309067,1289
1749980072.5309772,1038
1749980072.5310483,926
1749980072.5311189,1081
1749980072.5311894,1495
1749980072.5312605,1949
1749980072.5313382,2210
1749980072.5314093,2215
1749980072.53148,1996
1749980072.5315511,1666
1749980072.531623,1333
1749980072.5317905,1069
1749980072.5485313,924
1749980072.5486429,1033
1749980072.5487466,1418
1749980072.5488796,1894
1749980072.548957,2203
1749980072.5490327,2257
1749980072.5491083,2069
1749980072.549184,1748
1749980072.549258,1403
1749980072.5493324,1122
1749980072.5493958,943
1749980072.5494573,1000
1749980072.5495315,1342
1749980072.5496054,1819
1749980072.5496793,2160
1749980072.5497532,2253
1749980072.5498269,2101
1749980072.5499012,1799
1749980072.5499747,1452
1749980072.5500486,1154
1749980072.550122,945
1749980072.5501957,957
1749980072.5502627,1273
1749980072.5503213,1768
1749980072.5503953,2157
1749980072.5504687,2289
1749980072.550542,2162
1749980072.5506158,1876
1749980072.5506897,1537
1749980072.5507634,1240
1749980072.5508373,1013
1749980072.550911,966
1749980072.550988,1213
1749980072.551057,1680
1749980072.5511267,2098
1749980072.5511956,2280
1749980072.5512648,2200
1749980072.5513341,1931
1749980072.5514038,1585
1749980072.5514736,1272
1749980072.5515428,1035
1749980072.551612,956
1749980072.5516808,1154
1749980072.5517645,1587
1749980072.5518346,2019
1749980072.551905,2245
1749980072.551975,2219
1749980072.5520444,1981
1749980072.5521142,1637
1749980072.552186,1306
1749980072.5522966,1060
1749980072.5687447,961
1749980072.5886533,1125
1749980072.5926116,1529
1749980072.6359475,1968
1749980072.6360612,2227
1749980072.6361675,2247
1749980072.6362872,2045
1749980072.636392,1711
1749980072.6364973,1359
1749980072.6366024,1083
1749980072.6485624,945
1749980072.6486812,1076
1749980072.6798303,1478
1749980072.6812532,1956
1749980072.684798,2257
1749980072.6954987,2304
1749980072.6962416,2116
1749980072.6971827,1797
1749980072.69778,1453
1749980072.698342,1169
1749980072.7032173,985
1749980072.7032926,1036
1749980072.703361,1376
1749980072.703437,1858
1749980072.7035072,2209
1749980072.7035751,2310
1749980072.7036428,2160
1749980072.7037096,1857
1749980072.7037764,1508
1749980072.7038453,1213
1749980072.7039146,1006
1749980072.7039833,1010
1749980072.7040515,1305
1749980072.704125,1783
1749980072.7041917,2169
1749980072.7043567,2313
1749980072.7044296,2201
1749980072.7044992,1915
1749980072.7045717,1565
1749980072.7046402,1260
1749980072.7047105,1038
1749980072.704777,1004
1749980072.7048476,1259
1749980072.7049167,1725
1749980072.7049847,2136
1749980072.7051246,2314
1749980072.7051969,2235
1749980072.7052636,1969
1749980072.7053256,1626
1749980072.7054996,1312
1749980072.7055728,1069
1749980072.7056465,984
1749980072.7057157,1186
1749980072.705783,1634
1749980072.7058504,2082
1749980072.7059162,2308
1749980072.7059977,2270
1749980072.706066,2022
1749980072.7061343,1682
1749980072.706197,1359
1749980072.7108495,1106
1749980072.7109282,983
1749980072.7109957,1129
1749980072.7110636,1543
1749980072.7111328,2009
1749980072.7111998,2282
1749980072.7112656,2294
1749980072.711333,2079
1749980072.7114007,1754
1749980072.7114668,1426
1749980072.711533,1161
1749980072.7115989,1005
1749980072.7116652,1098
1749980072.711746,1473
1749980072.7118149,1950
1749980072.7118804,2265
1749980072.7119462,2323
1749980072.7120135,2139
1749980072.7120802,1822
1749980072.7121468,1483
1749980072.7122145,1203
1749980072.7122827,1019
1749980072.7123504,1066
1749980072.7630398,1403
1749980072.800696,1885
1749980072.8042996,2233
1749980072.8043773,2326
1749980072.8044474,2174
1749980072.8045163,1879
1749980072.8045847,1541
1749980072.804652,1245
1749980072.805612,1025
1749980072.8089752,1023
1749980072.8367722,1340
1749980072.8382292,1856
1749980072.8385534,2262
1749980072.8388667,2392
1749980072.8392317,2251
1749980072.8395965,1958
1749980072.839961,1630
1749980072.840325,1344
1749980072.8406897,1109
1749980072.8410542,1032
1749980072.8414114,1246
1749980072.8417072,1700
1749980072.842011,2127
1749980072.8423579,2325
1749980072.8426402,2257
1749980072.842984,1994
1749980072.8433485,1650
1749980072.8437123,1334
1749980072.8440783,1094
1749980072.8444428,1011
1749980072.844853,1209
1749980072.9019074,1648
1749980072.9019914,2087
1749980072.9020648,2314
1749980072.9124231,2286
1749980072.9156666,2047
1749980072.9157915,1704
1749980072.9158967,1372
1749980072.9160008,1119
1749980072.9161053,1005
1749980072.9167151,1151
1749980072.9168255,1545
1749980072.916929,1984
1749980072.9170327,2246
1749980072.917137,2272
1749980072.9172404,2078
1749980072.9486387,1755
1749980072.9487522,1411
1749980072.9488583,1139
1749980072.9489639,996
1749980072.9490833,1112
1749980072.949189,1496
1749980072.9500842,1964
1749980072.9501972,2265
1749980072.9503155,2318
1749980072.9504683,2138
1749980072.9506223,1820
1749980072.9507308,1473
1749980072.9508543,1191
1749980072.9509604,1016
1749980072.9510658,1074
1749980072.9512346,1411
1749980072.95134,1887
1749980072.9514456,2236
1749980072.9956985,2343
1749980073.009154,2203
1749980073.0095434,1906
1749980073.011918,1558
1749980073.0120132,1261
1749980073.012099,1054
1749980073.0121882,1054
1749980073.01228,1343
1749980073.0123682,1817
1749980073.0124521,2207
1749980073.012536,2359
1749980073.0126195,2253
1749980073.0127032,1968
1749980073.0127866,1613
1749980073.0128706,1299
1749980073.0129547,1069
1749980073.0130389,1023
1749980073.0131226,1268
1749980073.013206,1731
1749980073.0132892,2151
1749980073.0133727,2342
1749980073.0134559,2277
1749980073.0135396,2018
1749980073.013624,1672
1749980073.013707,1351
1749980073.0137923,1103
1749980073.0138912,1013
1749980073.0139747,1205
1749980073.0140605,1645
1749980073.0141478,2092
1749980073.0142717,2327
1749980073.01436,2304
1749980073.014448,2068
1749980073.0145311,1728
1749980073.0146148,1396
1749980073.0147023,1135
1749980073.0147943,1008
1749980073.0148816,1152
1749980073.014966,1563
1749980073.0150695,2030
1749980073.0151598,2305
1749980073.0152445,2323
1749980073.0153284,2116
1749980073.0154123,1791
1749980073.0154958,1457
1749980073.0155797,1186
1749980073.0156636,1026
1749980073.015747,1118
1749980073.0158303,1495
1749980073.015914,1980
1749980073.0159976,2303
1749980073.0160809,2365
1749980073.0161734,2182
1749980073.0162568,1861
1749980073.01634,1514
1749980073.016424,1231
1749980073.016508,1046
1749980073.0165966,1087
1749980073.01668,1415
1749980073.0167637,1892
1749980073.0168517,2248
1749980073.0169353,2358
1749980073.017019,2218
1749980073.0171025,1920
1749980073.0171866,1571
1749980073.0172698,1273
1749980073.0173538,1062
1749980073.0174372,1056
1749980073.0175207,1343
1749980073.0176082,1819
1749980073.0176919,2211
1749980073.0177748,2362
