1749981173.5337684,1762
1749981173.645336,1976
1749981173.6551342,1984
1749981173.6645422,1805
1749981173.6856906,1527
1749981173.7075574,1253
1749981173.7077062,1043
1749981173.7078662,929
1749981173.7080207,1025
1749981173.708173,1347
1749981173.7084568,1729
1749981173.7086563,1965
1749981173.708851,1998
1749981173.7090516,1840
1749981173.7092524,1571
1749981173.7093854,1286
1749981173.7094896,1059
1749981173.7095678,917
1749981173.7096453,975
1749981173.7097225,1279
1749981173.7098,1688
1749981173.7098775,1968
1749981173.7099557,2040
1749981173.7100327,1910
1749981173.71012,1657
1749981173.7101967,1377
1749981173.710275,1147
1749981173.7103524,981
1749981173.7104309,982
1749981173.7105243,1226
1749981173.7106152,1620
1749981173.7106926,1932
1749981173.7107697,2048
1749981173.7108467,1956
1749981173.710922,1715
1749981173.7109852,1418
1749981173.7122493,1163
1749981173.7123234,979
1749981173.7123961,954
1749981173.7124693,1184
1749981173.7125428,1593
1749981173.7126071,1945
1749981173.7126777,2092
1749981173.7127464,2023
1749981173.7128112,1799
1749981173.7128835,1512
1749981173.7129476,1254
1749981173.7130163,1049
1749981173.7130811,966
1749981173.7131543,1128
1749981173.7132282,1511
1749981173.7135603,1890
1749981173.7207932,2073
1749981173.7209,2031
1749981173.721012,1813
1749981173.721539,1525
1749981173.7221239,1263
1749981173.722559,1056
1749981173.7232125,941
1749981173.7233698,1049
1749981173.7234466,1395
1749981173.7235198,1792
1749981173.7235959,2025
1749981173.7238295,2039
1749981173.7239032,1857
1749981173.7240112,1576
1749981173.7240896,1295
1749981173.7241795,1068
1749981173.7257466,922
1749981173.7258353,987
1749981173.7259135,1301
1749981173.7259908,1709
1749981173.7261343,1972
1749981173.7262158,2015
1749981173.726292,1851
1749981173.7263775,1576
1749981173.7264907,1291
1749981173.7265742,1068
1749981173.7266521,914
1749981173.726724,935
1749981173.7268014,1195
1749981173.7269006,1582
1749981173.7269645,1867
1749981173.72704,1956
1749981173.7271333,1843
1749981173.727239,1596
1749981173.7273095,1305
1749981173.7273848,1062
1749981173.7274575,890
1749981173.7275345,890
1749981173.7276325,1143
1749981173.7277324,1555
1749981173.7278118,1882
1749981173.7279036,1999
1749981173.7280147,1904
1749981173.728092,1669
1749981173.7281895,1384
1749981173.7282832,1135
1749981173.728391,940
1749981173.728467,879
1749981173.728544,1070
1749981173.7286413,1464
1749981173.7337449,1829
1749981173.7338345,1995
1749981173.7339258,1941
1749981173.7340126,1721
1749981173.734112,1433
1749981173.734193,1173
1749981173.7342787,971
1749981173.7343628,883
1749981173.7344487,1032
1749981173.734526,1402
1749981173.7346213,1785
1749981173.734699,1989
1749981173.7347775,1979
1749981173.7348545,1785
1749981173.734933,1499
1749981173.7350268,1222
1749981173.7351146,1007
1749981173.7351964,893
1749981173.7352748,994
1749981173.7353606,1323
1749981173.7354624,1707
1749981173.7355437,1942
1749981173.7356358,1975
1749981173.7357183,1817
1749981173.7358005,1543
1749981173.735899,1249
1749981173.7359805,1018
1749981173.736061,884
1749981173.7361424,963
1749981173.7362235,1284
1749981173.7363195,1696
1749981173.7364023,1968
1749981173.7364836,2031
1749981173.7365649,1894
1749981173.7367146,1637
1749981173.7367892,1351
1749981173.736864,1116
1749981173.7369375,950
1749981173.7370112,957
1749981173.7370849,1207
1749981173.7371724,1597
1749981173.7372463,1896
1749981173.7373202,2002
1749981173.7373936,1907
1749981173.7374568,1673
1749981173.7375205,1386
1749981173.7376146,1137
1749981173.73769,954
1749981173.7377646,936
1749981173.7378607,1175
1749981173.737965,1592
1749981173.7380552,1941
1749981173.7381978,2078
1749981173.7385597,1997
1749981173.7386634,1766
1749981173.7387657,1481
1749981173.738868,1230
1749981173.7441669,1034
1749981173.7444293,962
1749981173.7445595,1135
1749981173.7446928,1521
1749981173.744826,1896
1749981173.7450514,2079
1749981173.7451255,2042
1749981173.7455149,1830
1749981173.7456198,1540
1749981173.745725,1271
1749981173.7461286,1061
1749981173.7462344,957
1749981173.7463384,1078
1749981173.7464411,1423
1749981173.7465446,1803
1749981173.746648,2023
1749981173.7467523,2039
1749981173.7468557,1870
1749981173.7469587,1594
1749981173.747173,1308
1749981173.7472765,1079
1749981173.7473788,953
1749981173.7474911,1052
1749981173.7475932,1390
1749981173.7476954,1794
1749981173.7477977,2040
1749981173.7479007,2077
1749981173.7480028,1924
1749981173.7481053,1662
1749981173.7482073,1377
1749981173.748325,1138
1749981173.7484279,976
1749981173.7485297,1021
1749981173.7486324,1330
1749981173.7487347,1758
1749981173.7488368,2050
1749981173.7489398,2115
1749981173.7490416,1976
1749981173.749144,1726
1749981173.7492461,1452
1749981173.7493489,1216
1749981173.7494638,1026
1749981173.7584481,1001
1749981173.7602456,1248
1749981173.760861,1675
1749981173.760965,2018
1749981173.7610698,2136
1749981173.7630415,2030
1749981173.7637668,1788
1749981173.7641475,1507
1749981173.764255,1266
1749981173.7643588,1072
1749981173.764462,1013
1749981173.7645655,1209
1749981173.7646692,1607
1749981173.764773,1967
1749981173.7648778,2123
1749981173.7649965,2062
1749981173.7651012,1845
1749981173.7651772,1564
1749981173.7688365,1306
1749981173.7725294,1097
1749981173.7726095,1006
1749981173.7726824,1159
1749981173.7727513,1533
1749981173.7728484,1910
1749981173.7729204,2101
1749981173.772998,2076
1749981173.7730696,1875
1749981173.773146,1591
1749981173.774206,1321
1749981173.7919455,1110
1749981173.7966444,1001
1749981173.7967362,1111
1749981173.7968075,1446
1749981173.7968757,1824
1749981173.7969434,2047
1749981173.797016,2070
1749981173.7970853,1909
1749981173.7971523,1640
1749981173.7972229,1355
1749981173.7972906,1126
1749981173.7973514,993
1749981173.798567,1080
1749981173.798646,1412
1749981173.8050616,1827
1749981173.805144,2088
1749981173.8052185,2132
1749981173.805291,1982
1749981173.805366,1724
1749981173.8054385,1443
1749981173.8055117,1207
1749981173.8057733,1036
1749981173.805937,1051
1749981173.8060408,1325
1749981173.8070016,1740
1749981173.8070848,2047
1749981173.8071604,2139
1749981173.807236,2023
1749981173.807316,1777
1749981173.8073902,1490
1749981173.807464,1244
1749981173.8075383,1056
1749981173.8076756,1028
1749981173.8077803,1260
1749981173.8078935,1672
1749981173.8079975,2015
1749981173.808101,2148
1749981173.808204,2062
1749981173.8083045,1822
1749981173.8083727,1524
1749981173.8084393,1265
1749981173.8085048,1070
1749981173.8085735,1014
1749981173.8086395,1210
1749981173.8087065,1609
1749981173.8087747,1977
1749981173.8088424,2142
1749981173.808911,2092
1749981173.8089788,1878
1749981173.8090444,1594
1749981173.8091135,1332
1749981173.809181,1125
1749981173.8092496,1030
1749981173.8093143,1180
1749981173.8093746,1570
1749981173.8094406,1979
1749981173.8095074,2188
1749981173.8095737,2147
1749981173.8096397,1899
1749981173.8097086,1561
1749981173.8097744,1261
1749981173.8098416,1063
1749981173.8099093,993
1749981173.8099744,1150
1749981173.810043,1525
1749981173.8101099,1939
1749981173.8101768,2184
1749981173.8102455,2223
1749981173.810313,2081
1749981173.8103867,1827
1749981173.810453,1531
1749981173.8105211,1251
1749981173.8105881,1037
1749981173.8106542,1043
1749981173.8107255,1342
1749981173.8107948,1787
1749981173.8108592,2109
1749981173.810918,2204
1749981173.810983,2083
1749981173.8110497,1844
1749981173.8111155,1579
1749981173.8111827,1350
1749981173.8112535,1164
1749981173.8113225,1143
1749981173.8113885,1385
1749981173.811458,1798
1749981173.811528,2116
1749981173.8116727,2203
1749981173.8117638,2074
1749981173.8118472,1837
1749981173.8131835,1589
1749981173.8132586,1384
1749981173.813322,1205
1749981173.8133838,1143
1749981173.81345,1334
1749981173.8135178,1735
1749981173.8135855,2092
1749981173.8136542,2228
1749981173.813721,2138
1749981173.813792,1917
1749981173.8138597,1670
1749981173.8139284,1455
1749981173.8139958,1256
1749981173.814064,1134
1749981173.8141313,1271
1749981173.8141983,1679
1749981173.8142655,2101
1749981173.8143344,2284
1749981173.8144002,2197
1749981173.8144689,1949
1749981173.8145375,1690
1749981173.8146083,1489
1749981173.8146803,1306
1749981173.81475,1154
1749981173.8148162,1231
1749981173.814879,1623
1749981173.8149533,2092
1749981173.8150194,2310
1749981173.8150861,2197
1749981173.815152,1885
1749981173.815229,1591
1749981173.8153138,1409
1749981173.815382,1273
1749981173.8154526,1122
1749981173.8155215,1151
1749981173.8155875,1554
1749981173.8156548,2212
1749981173.8157227,2771
1749981173.815794,3023
1749981173.8159127,2971
1749981173.849343,2781
1749981173.8494182,2611
1749981173.8494868,2504
1749981173.8495567,2405
1749981173.8496258,2421
1749981173.8496945,2690
1749981173.8497617,3140
1749981173.8498306,3504
1749981173.8499,3636
1749981173.8499677,3540
1749981173.8500347,3330
1749981173.8501022,3123
1749981173.8501701,2976
1749981173.850239,2854
1749981173.8503091,2832
1749981173.850376,3035
1749981173.8504424,3426
1749981173.850511,3773
1749981173.850579,3913
1749981173.8506474,3819
1749981173.850716,3583
1749981173.8507833,3322
1749981173.8508518,3113
1749981173.8509114,2943
1749981173.8509743,2877
1749981173.8510387,3049
1749981173.851105,3450
1749981173.851174,3850
1749981173.8512454,4032
1749981173.8513145,3948
1749981173.8513877,3695
1749981173.851455,3427
1749981173.8515224,3226
1749981173.851608,3056
1749981173.8516796,2914
1749981173.8517473,2934
1749981173.851815,3167
1749981173.8518834,3460
1749981173.8519518,3589
1749981173.8520184,3468
1749981173.8520877,3133
1749981173.8521547,2723
1749981173.852224,2355
1749981173.8522909,2075
1749981173.8523579,1902
1749981173.8524265,1949
1749981173.8524954,2237
1749981173.8525627,2599
1749981173.8526561,2800
1749981173.8527255,2765
1749981173.8527985,2523
1749981173.8528657,2193
1749981173.852933,1870
1749981173.8530018,1612
1749981173.8530707,1432
1749981173.853142,1442
1749981173.8532114,1694
1749981173.8532789,2057
1749981173.8533404,2298
1749981173.853406,2330
1749981173.8534722,2158
1749981173.8535414,1869
1749981173.853611,1561
1749981173.853678,1307
1749981173.853747,1115
1749981173.8538146,1087
1749981173.8538845,1301
1749981173.8588955,1666
1749981173.8589633,1953
1749981173.8590333,2047
1749981173.8591015,1932
1749981173.8591692,1671
1749981173.859237,1357
1749981173.8593109,1090
1749981173.85938,895
1749981173.8594522,858
1749981173.859522,1067
1749981173.8595955,1447
1749981173.8596625,1766
1749981173.8597326,1887
1749981173.8598006,1802
1749981173.8598673,1566
1749981173.8599346,1267
1749981173.8600025,997
1749981173.860072,782
1749981173.8601384,695
1749981173.8602066,854
1749981173.8602748,1225
1749981173.8603423,1584
1749981173.8604114,1755
1749981173.8604784,1711
1749981173.8605523,1497
1749981173.8606212,1204
1749981173.8606904,930
1749981173.8607588,713
1749981173.8608284,603
1749981173.8608985,722
1749981173.8609655,1069
1749981173.8610334,1450
1749981173.861103,1662
1749981173.8611708,1665
1749981173.8612387,1482
1749981173.8613038,1203
1749981173.8613632,925
1749981173.8826559,702
1749981173.882732,566
1749981173.882802,635
1749981173.8828678,940
1749981173.8830206,1326
1749981173.8830917,1576
1749981173.8831651,1623
1749981173.8832412,1475
1749981173.8833158,1207
1749981173.8833904,917
1749981173.8834653,684
1749981173.88354,535
1749981173.8836148,583
1749981173.8836892,877
1749981173.883764,1285
1749981173.883839,1569
1749981173.8839133,1644
1749981173.8839877,1520
1749981173.8840623,1275
1749981173.884371,995
1749981173.884505,758
1749981173.8846679,580
1749981173.8848088,568
1749981173.8850217,815
1749981173.885182,1227
1749981173.8853223,1559
1749981173.885571,1680
1749981173.8857136,1588
1749981173.8858528,1355
1749981173.8859956,1071
1749981173.8861363,823
1749981173.886269,631
1749981173.886416,582
1749981173.8865554,786
1749981173.886693,1187
1749981173.886837,1547
1749981173.8869438,1706
1749981173.8870032,1649
1749981173.8872461,1432
1749981173.8873625,1150
1749981173.8874779,892
1749981173.8875926,686
1749981173.8877175,591
1749981173.8878307,727
1749981173.8879423,1082
1749981173.8880563,1452
1749981173.8881884,1653
1749981173.8886902,1646
1749981173.8887641,1457
1749981173.8888347,1173
1749981173.8889027,898
1749981173.8889856,687
1749981173.8890622,586
1749981173.8893027,713
1749981173.8893616,1072
1749981173.8894393,1476
1749981173.8895042,1708
1749981173.8895705,1721
1749981173.8896377,1544
1749981173.8897028,1272
1749981173.889771,999
1749981173.8898501,783
1749981173.889918,644
1749981173.8899846,706
1749981173.8900506,1017
1749981173.8901167,1431
1749981173.8901863,1712
1749981173.890253,1779
1749981173.8903365,1642
1749981173.8904097,1386
1749981173.8904786,1103
1749981173.8905456,868
1749981173.8906136,699
1749981173.8906817,714
1749981173.890776,987
1749981173.8908443,1402
1749981173.8909044,1714
1749981173.8909762,1816
1749981173.891709,1712
1749981173.9739552,1475
1749981173.991119,1190
1749981173.9912007,941
1749981174.0219967,754
1749981174.041589,730
1749981174.0416665,963
1749981174.0417361,1371
1749981174.0418031,1709
1749981174.0418708,1842
1749981174.0419405,1766
1749981174.050073,1542
1749981174.0501559,1257
1749981174.0502305,1002
1749981174.050303,809
1749981174.050418,753
1749981174.0504878,938
1749981174.050557,1320
1749981174.0514622,1678
1749981174.0524893,1854
1749981174.0886261,1827
1749981174.1009474,1633
1749981174.1010568,1350
1749981174.1011536,1078
1749981174.1027849,869
1749981174.105096,777
1749981174.1051848,916
1749981174.1052558,1268
1749981174.111764,1637
1749981174.1118517,1839
1749981174.1119723,1842
1749981174.112046,1665
1749981174.1121173,1386
1749981174.1121976,1107
1749981174.1122704,895
1749981174.112411,783
1749981174.1124935,883
1749981174.1125712,1206
1749981174.1126482,1592
1749981174.1127334,1837
1749981174.1138027,1882
1749981174.1139007,1731
1749981174.1610842,1458
1749981174.184896,1165
1749981174.18499,940
1749981174.1850579,808
1749981174.1851256,870
1749981174.1851912,1161
1749981174.1852567,1550
1749981174.1853192,1825
1749981174.1854866,1910
1749981174.1895983,1801
1749981174.2485254,1556
1749981174.2486591,1259
1749981174.2487726,1005
1749981174.2488706,832
1749981174.2489681,853
1749981174.2491014,1135
1749981174.2491763,1562
1749981174.2492518,1885
1749981174.249339,1993
1749981174.249408,1896
1749981174.2494917,1668
1749981174.2495654,1394
1749981174.2496393,1149
1749981174.2497253,951
1749981174.2498016,896
1749981174.2498758,1100
1749981174.2499502,1505
1749981174.2500238,1865
1749981174.2501316,2018
1749981174.2502308,1952
1749981174.25033,1732
1749981174.2505715,1453
1749981174.2507164,1201
1749981174.2508452,994
1749981174.2509117,902
1749981174.2509775,1058
1749981174.2510586,1443
1749981174.2511425,1830
1749981174.2512152,2024
1749981174.2512944,1993
1749981174.2513669,1787
1749981174.26873,1508
1749981174.27391,1245
1749981174.2938027,1033
1749981174.2939186,913
1749981174.294018,1023
1749981174.2941175,1377
1749981174.2942731,1784
1749981174.2943716,2021
1749981174.3006058,2034
1749981174.3084633,1854
1749981174.308544,1580
1749981174.3086262,1308
1749981174.308699,1091
1749981174.3087761,954
1749981174.3088562,1027
1749981174.3089373,1348
1749981174.309012,1761
1749981174.3090858,2028
1749981174.3091614,2078
1749981174.3092403,1928
1749981174.3093073,1664
1749981174.318474,1378
1749981174.3185554,1140
1749981174.3186247,972
1749981174.3383505,996
1749981174.338434,1280
1749981174.338508,1698
1749981174.3385816,2003
1749981174.3386555,2092
1749981174.3387287,1973
1749981174.338802,1725
1749981174.3388753,1439
1749981174.338941,1193
1749981174.339007,1009
1749981174.3390794,989
1749981174.3391523,1229
1749981174.3392253,1641
1749981174.339304,1978
1749981174.339382,2106
1749981174.3394578,2021
1749981174.3395357,1792
1749981174.3396108,1507
1749981174.339686,1253
1749981174.3397608,1051
1749981174.3398361,985
1749981174.3399112,1176
1749981174.3399868,1577
1749981174.3400621,1950
1749981174.3401368,2120
1749981174.3402116,2066
1749981174.3402867,1849
1749981174.340362,1566
1749981174.3404372,1304
1749981174.3405123,1093
1749981174.3405876,990
1749981174.3406622,1127
1749981174.340738,1499
1749981174.3408136,1894
1749981174.3692596,2104
1749981174.388558,2090
1749981174.3900487,1894
1749981174.390156,1616
1749981174.3903017,1350
1749981174.3904371,1139
1749981174.390542,1015
1749981174.3906462,1107
1749981174.3907506,1441
1749981174.3908546,1845
1749981174.3920648,2093
1749981174.392175,2125
1749981174.3922787,1959
1749981174.392387,1686
1749981174.3924904,1403
1749981174.3927732,1175
1749981174.3958113,1026
1749981174.3962543,1082
1749981174.3963656,1391
1749981174.3964682,1808
1749981174.3965712,2087
1749981174.3966727,2146
1749981174.3967748,2001
1749981174.396878,1740
1749981174.39698,1457
1749981174.3970819,1221
1749981174.3971834,1044
1749981174.3972852,1045
1749981174.397388,1309
1749981174.39749,1729
1749981174.3975918,2052
1749981174.3976936,2155
1749981174.3977957,2041
1749981174.3978972,1795
1749981174.3979995,1511
1749981174.3981013,1265
1749981174.3982034,1071
1749981174.398328,1030
1749981174.3984299,1255
1749981174.3985314,1675
1749981174.3986335,2037
1749981174.3987346,2181
1749981174.3988369,2100
1749981174.3989391,1868
1749981174.3990402,1582
1749981174.3991418,1326
1749981174.3992434,1118
1749981174.399345,1032
1749981174.3994462,1197
1749981174.3995473,1582
1749981174.4038432,1960
1749981174.403949,2145
1749981174.4040523,2112
1749981174.404154,1908
1749981174.404267,1628
1749981174.4043689,1361
1749981174.4044704,1145
1749981174.404572,1034
1749981174.4046736,1161
1749981174.4047751,1525
1749981174.4048777,1921
1749981174.4049873,2139
1749981174.4050899,2137
1749981174.4051914,1954
1749981174.42372,1680
1749981174.4580858,1405
1749981174.4590478,1179
1749981174.4591556,1036
1749981174.459263,1115
1749981174.4593651,1447
1749981174.4594665,1858
1749981174.459568,2110
1749981174.4596694,2140
1749981174.4597695,1981
1749981174.4599671,1726
1749981174.4600687,1459
1749981174.4601698,1233
1749981174.460271,1066
1749981174.4603722,1094
1749981174.4604726,1392
1749981174.4605737,1824
1749981174.4651601,2128
1749981174.4720924,2199
1749981174.4726973,2055
1749981174.4727728,1794
1749981174.4728448,1510
1749981174.4729195,1269
1749981174.4729865,1077
1749981174.4730551,1051
1749981174.477973,1294
1749981174.4780872,1715
1749981174.4784539,2053
1749981174.4785228,2169
1749981174.4785893,2067
1749981174.4786563,1836
1749981174.4790838,1567
1749981174.4791527,1328
1749981174.47922,1126
1749981174.4792898,1059
1749981174.4793584,1262
1749981174.4794264,1685
1749981174.4794943,2068
1749981174.4795623,2224
1749981174.4796302,2144
1749981174.4796984,1908
1749981174.4797664,1628
1749981174.4798343,1381
1749981174.479902,1171
1749981174.4799693,1057
1749981174.4800363,1183
1749981174.4801035,1552
1749981174.4801707,1947
1749981174.4802384,2156
1749981174.4803069,2137
1749981174.4803748,1936
1749981174.4804416,1656
1749981174.4805093,1393
1749981174.4805787,1182
1749981174.4806464,1059
1749981174.4807134,1158
1749981174.4807806,1498
1749981174.480847,1898
1749981174.4809146,2132
1749981174.4809828,2146
1749981174.4810493,1969
1749981174.4811168,1697
1749981174.4811847,1423
1749981174.4812524,1202
1749981174.4813168,1056
1749981174.4835362,1115
1749981174.494551,1426
1749981174.4953003,1838
1749981174.4954093,2110
1749981174.5652373,2164
1749981174.5657866,2018
1749981174.5661175,1760
1749981174.5664437,1480
1749981174.5667691,1246
1749981174.5670917,1076
1749981174.5674164,1092
1749981174.567742,1367
1749981174.5680683,1782
1749981174.568417,2090
1749981174.5687442,2184
1749981174.5690706,2071
1749981174.569398,1826
1749981174.5697238,1539
1749981174.5700498,1288
1749981174.5703766,1098
1749981174.570702,1068
1749981174.5710247,1297
1749981174.571358,1702
1749981174.5812182,2041
1749981174.5835154,2178
1749981174.5835986,2105
1749981174.583673,1882
1749981174.5839474,1594
1749981174.5840538,1333
1749981174.584158,1128
1749981174.5842614,1060
1749981174.5843785,1243
1749981174.5844831,1632
1749981174.5845857,1997
1749981174.5846894,2168
1749981174.584803,2125
1749981174.5931141,1915
1749981174.593196,1630
1749981174.5932696,1364
1749981174.593343,1153
1749981174.5934072,1053
1749981174.593475,1190
1749981174.593548,1556
1749981174.5936213,1947
1749981174.593694,2159
1749981174.5938385,2155
1749981174.593913,1970
1749981174.593987,1697
1749981174.5940597,1426
1749981174.5941336,1204
1749981174.5942068,1068
1749981174.59428,1151
1749981174.594353,1483
1749981174.6140552,1891
1749981174.621909,2142
1749981174.6680148,2173
1749981174.6684103,2007
1749981174.668761,1738
1749981174.6766014,1458
1749981174.7032247,1230
1749981174.7261891,1071
1749981174.7266338,1111
1749981174.7267065,1411
1749981174.7272997,1833
1749981174.7449458,2126
1749981174.7450254,2194
1749981174.7450953,2051
1749981174.7451677,1791
1749981174.745238,1512
1749981174.745305,1284
1749981174.7453668,1111
1749981174.7454364,1101
1749981174.7455037,1349
1749981174.745572,1762
1749981174.7456396,2091
1749981174.7457082,2204
1749981174.7457774,2099
1749981174.7458458,1853
1749981174.7459154,1567
1749981174.7459826,1324
1749981174.7460601,1135
1749981174.7461295,1086
1749981174.7461975,1289
1749981174.746265,1690
1749981174.7463343,2049
1749981174.7464013,2204
1749981174.7464697,2135
1749981174.7465355,1906
1749981174.7466044,1617
1749981174.7466726,1360
1749981174.7467425,1160
1749981174.7468095,1080
1749981174.7468734,1242
1749981174.7469418,1623
1749981174.747009,2003
1749981174.7470763,2193
1749981174.7471442,2164
1749981174.7472143,1960
1749981174.7472827,1678
1749981174.747351,1411
1749981174.7474182,1198
1749981174.7474859,1085
1749981174.7475567,1202
1749981174.7476237,1555
1749981174.7476962,1953
1749981174.7477634,2179
1749981174.747831,2187
1749981174.747898,2010
1749981174.7479687,1741
1749981174.7480366,1467
1749981174.7481036,1240
1749981174.7481742,1091
1749981174.748242,1156
1749981174.7517831,1477
1749981174.751856,1891
1749981174.7519264,2157
1749981174.7519956,2201
1749981174.7520652,2046
1749981174.7521317,1782
1749981174.7522008,1499
1749981174.7522678,1262
1749981174.7523377,1090
1749981174.7524066,1106
1749981174.7524755,1383
1749981174.7525434,1797
1749981174.7526095,2098
1749981174.7526777,2182
1749981174.7527468,2057
1749981174.7528136,1808
1749981174.7528808,1526
1749981174.7529485,1287
1749981174.7530146,1103
1749981174.7530835,1079
1749981174.7531505,1314
1749981174.7532191,1723
1749981174.753286,2059
1749981174.7533455,2183
1749981174.7534103,2091
1749981174.7534761,1856
1749981174.753543,1572
1749981174.753612,1323
1749981174.753679,1126
1749981174.7537477,1062
1749981174.7538133,1250
1749981174.7538824,1647
1749981174.7539494,2017
1749981174.7540183,2186
1749981174.7540853,2131
1749981174.7541552,1910
1749981174.7542348,1624
1749981174.754304,1365
1749981174.7543702,1160
1749981174.7544389,1060
1749981174.7598357,1195
1749981174.7599263,1558
1749981174.7599976,1946
1749981174.7600741,2155
1749981174.7601452,2144
1749981174.7602153,1950
1749981174.760285,1670
1749981174.7603552,1402
1749981174.7604253,1189
1749981174.7604957,1062
1749981174.760566,1151
1749981174.7606344,1485
1749981174.7607048,1889
1749981174.7607744,2134
1749981174.760845,2159
1749981174.7609158,1986
1749981174.7609863,1713
1749981174.7610571,1437
1749981174.7611275,1216
1749981174.7611973,1067
1749981174.7612677,1112
1749981174.7613378,1411
1749981174.7622776,1825
1749981174.7952857,2109
1749981174.82963,2174
1749981174.8297126,2032
1749981174.8297865,1773
1749981174.8302639,1494
1749981174.8316789,1265
1749981174.8318508,1094
1749981174.8319242,1094
1749981174.8319948,1351
1749981174.832341,1765
1749981174.8450124,2082
1749981174.8452227,2184
1749981174.8675032,2071
1749981174.9434404,1828
1749981174.9472003,1550
1749981174.9473166,1313
1749981174.94893,1125
1749981174.949035,1078
1749981174.9491382,1285
1749981174.9495225,1687
1749981174.9496474,2039
1749981174.9499865,2183
1749981174.9500947,2106
1749981174.9502,1876
1749981174.9503038,1591
1749981174.950408,1341
1749981174.9505112,1142
1749981174.9506147,1062
1749981174.9508188,1226
1749981174.9510076,1609
1749981174.9511123,1986
1749981174.9512422,2170
1749981174.9517984,2132
1749981174.9519022,1922
1749981174.9520042,1639
1749981174.9521248,1377
1749981174.953035,1167
1749981174.953481,1056
1749981174.9540324,1174
1749981174.954234,1529
1749981174.9543529,1923
1749981174.9550273,2142
1749981174.9553788,2142
1749981174.9554834,1958
1749981174.9555862,1683
1749981174.9556887,1410
1749981174.9558144,1186
1749981174.9560645,1044
1749981174.9561675,1120
1749981174.956368,1451
1749981174.956475,1869
1749981174.9566345,2131
1749981175.0517924,2170
1749981175.073464,2008
1749981175.074169,1742
1749981175.0743623,1463
1749981175.0744395,1232
1749981175.074531,1067
1749981175.074608,1092
1749981175.0757992,1379
1749981175.0759118,1800
1749981175.0760186,2103
1749981175.0762289,2186
1749981175.0763013,2057
1749981175.0763726,1804
1749981175.0764437,1521
1749981175.0765147,1285
1749981175.0765855,1103
1749981175.0766618,1082
1749981175.0767329,1317
1749981175.0768042,1724
1749981175.0768752,2055
1749981175.076945,2175
1749981175.0770159,2076
1749981175.0770872,1833
1749981175.0771587,1545
1749981175.0772293,1298
1749981175.0773,1107
1749981175.077367,1052
1749981175.0774276,1246
1749981175.0774956,1644
1749981175.0775661,2010
1749981175.0776362,2177
1749981175.0777073,2121
1749981175.077778,1898
1749981175.077849,1607
1749981175.0779188,1345
1749981175.0779896,1139
1749981175.078061,1048
1749981175.078133,1196
1749981175.0782032,1569
1749981175.078284,1953
1749981175.078353,2153
1749981175.0784233,2135
1749981175.0784938,1941
1749981175.0785646,1664
1749981175.0786421,1397
1749981175.0787125,1180
1749981175.0787814,1054
1749981175.0788522,1155
1749981175.0789187,1501
1749981175.0789793,1908
1749981175.0790503,2150
1749981175.0791216,2170
1749981175.079193,1998
1749981175.0792637,1728
1749981175.079335,1458
1749981175.0794053,1242
1749981175.0794756,1099
1749981175.079765,1156
1749981175.0802653,1463
1749981175.080469,1875
1749981175.0805414,2154
1749981175.080623,2217
1749981175.0806894,2074
1749981175.080758,1812
1749981175.080831,1524
1749981175.0809038,1287
1749981175.0809755,1117
1749981175.0810478,1130
1749981175.08112,1398
1749981175.081192,1809
1749981175.0812647,2117
1749981175.081337,2212
1749981175.0814004,2097
1749981175.081462,1849
1749981175.0815291,1559
1749981175.0816193,1312
1749981175.0816925,1127
1749981175.0817647,1101
1749981175.081837,1332
1749981175.081908,1743
1749981175.0819805,2088
1749981175.082053,2225
1749981175.0821283,2145
1749981175.082201,1915
1749981175.0822732,1623
1749981175.1098673,1360
1749981175.1547294,1152
1749981175.1559372,1077
1749981175.1700897,1255
1749981175.1744633,1645
1749981175.1745596,2017
1749981175.1747193,2194
1749981175.1754081,2154
1749981175.175543,1946
1749981175.1756423,1661
1749981175.1757147,1391
1749981175.1757855,1175
1749981175.1758556,1068
1749981175.1759267,1202
1749981175.1760144,1570
1749981175.1761637,1962
1749981175.1762404,2173
1749981175.179434,2165
1749981175.1795247,1976
1749981175.179614,1700
1749981175.1797054,1428
1749981175.1797915,1206
1749981175.179875,1070
1749981175.179964,1154
1749981175.180058,1488
1749981175.1801481,1899
1749981175.180238,2152
1749981175.1803277,2183
1749981175.1804175,2019
1749981175.1804981,1752
1749981175.1959698,1474
1749981175.2147517,1245
1749981175.2148697,1083
1749981175.2152245,1118
1749981175.2153366,1414
1749981175.21547,1835
1749981175.2155807,2131
1749981175.2253456,2203
1749981175.2254398,2065
1749981175.2255278,1806
1749981175.2256255,1523
1749981175.2257235,1287
1749981175.2258215,1109
1749981175.2259185,1102
1749981175.2260158,1356
1749981175.2261186,1775
1749981175.226216,2105
1749981175.2263138,2216
1749981175.2264113,2104
1749981175.2265089,1853
1749981175.226606,1560
1749981175.226703,1312
1749981175.2268004,1120
1749981175.2268984,1073
1749981175.2269804,1278
1749981175.2270768,1682
1749981175.2271738,2044
1749981175.2272706,2203
1749981175.227368,2141
1749981175.2274654,1915
1749981175.2275624,1624
1749981175.2276602,1363
1749981175.227757,1161
1749981175.2278543,1080
1749981175.2279515,1238
1749981175.228056,1612
1749981175.2281532,1989
1749981175.22826,2183
1749981175.228361,2163
1749981175.2284582,1967
1749981175.2285557,1685
1749981175.2286534,1413
1749981175.228751,1199
1749981175.2288482,1091
1749981175.2289212,1216
1749981175.2289908,1573
1749981175.2290716,1971
1749981175.229152,2195
1749981175.2292325,2203
1749981175.2293127,2024
1749981175.2293828,1751
1749981175.229459,1473
1749981175.2295394,1245
1749981175.22962,1100
1749981175.2297,1171
1749981175.2297807,1498
1749981175.229861,1917
1749981175.2299418,2187
1749981175.2300227,2235
1749981175.2301035,2081
1749981175.2301836,1815
1749981175.2302644,1528
1749981175.230345,1289
1749981175.2304258,1114
1749981175.2305064,1129
1749981175.2305882,1407
1749981175.2306688,1826
1749981175.2307491,2132
1749981175.2308302,2219
1749981175.2309113,2093
1749981175.2309747,1841
1749981175.2310588,1556
1749981175.2311404,1315
1749981175.231209,1131
1749981175.231288,1106
1749981175.2313664,1340
1749981175.2314463,1751
1749981175.2315261,2091
1749981175.2484398,2221
1749981175.3126414,2131
1749981175.3447506,1892
1749981175.3553295,1600
1749981175.3575788,1344
1749981175.358972,1145
1749981175.3695447,1081
1749981175.373299,1269
1749981175.3737898,1664
1749981175.3767083,2032
1749981175.3768318,2202
1749981175.3769388,2154
1749981175.3770106,1940
1749981175.3770826,1655
1749981175.3788152,1391
1749981175.3788867,1181
1749981175.379056,1084
1749981175.3791442,1228
1749981175.3792133,1602
1749981175.379285,1993
1749981175.3793526,2199
1749981175.3794208,2185
1749981175.3794954,1993
1749981175.379594,1717
1749981175.3796709,1448
1749981175.3797505,1225
1749981175.3798203,1088
1749981175.37989,1175
1749981175.3799589,1512
1749981175.3845751,1920
1749981175.384668,2164
1749981175.3847477,2186
1749981175.4024858,2012
1749981175.4925096,1740
1749981175.4966931,1465
1749981175.4968965,1244
1749981175.4970112,1093
1749981175.4970944,1139
1749981175.497174,1437
1749981175.4972498,1850
1749981175.4973266,2134
1749981175.4974031,2201
1749981175.4979494,2058
1749981175.503995,1793
1749981175.5040886,1507
1749981175.5041754,1278
1749981175.5042615,1114
1749981175.5043473,1117
1749981175.5054283,1361
1749981175.505562,1753
1749981175.5056891,2060
1749981175.5103118,2171
1749981175.5103958,2075
1749981175.5104733,1835
1749981175.5105584,1541
1749981175.510629,1286
1749981175.510704,1100
1749981175.510777,1076
1749981175.51085,1309
1749981175.5110512,1725
1749981175.511133,2077
1749981175.5112062,2219
1749981175.5112703,2145
1749981175.5113323,1918
1749981175.5113943,1633
1749981175.511464,1376
1749981175.511537,1171
1749981175.511615,1090
1749981175.511691,1258
1749981175.5117624,1642
1749981175.5118337,2017
1749981175.5119052,2198
1749981175.5119877,2160
1749981175.512059,1953
1749981175.512131,1669
1749981175.5122092,1401
1749981175.5122817,1186
1749981175.5123553,1074
1749981175.5124228,1195
1749981175.5124922,1551
1749981175.5125594,1944
1749981175.5126257,2165
1749981175.5126922,2170
1749981175.5128195,1987
1749981175.512887,1710
1749981175.5129557,1435
1749981175.5130224,1217
1749981175.5130932,1086
1749981175.5131698,1166
1749981175.5132356,1487
1749981175.5132983,1890
1749981175.5133579,2153
1749981175.5134268,2208
1749981175.5134928,2063
1749981175.5135598,1796
1749981175.513626,1500
1749981175.5136974,1256
1749981175.513764,1092
1749981175.513832,1127
1749981175.5138988,1416
1749981175.5139654,1825
1749981175.514032,2111
1749981175.5141,2183
1749981175.514165,2053
1749981175.5142322,1803
1749981175.5142984,1522
1749981175.514365,1285
1749981175.5144322,1105
1749981175.5145006,1088
1749981175.5145693,1330
1749981175.5146353,1740
1749981175.5147011,2071
1749981175.51477,2188
1749981175.5148356,2091
1749981175.5148952,1855
1749981175.5149732,1573
1749981175.5150423,1325
1749981175.5151143,1125
1749981175.5151927,1062
1749981175.5152643,1257
1749981175.5153334,1659
1749981175.5154033,2026
1749981175.5154793,2184
1749981175.515559,2119
1749981175.515629,1894
1749981175.5156963,1609
1749981175.5157657,1351
1749981175.5158317,1142
1749981175.5158985,1044
1749981175.515967,1187
1749981175.5160384,1562
1749981175.516105,1950
1749981175.5200415,2150
1749981175.5201173,2126
1749981175.520184,1924
1749981175.52025,1644
1749981175.5203156,1377
1749981175.5203831,1161
1749981175.520449,1034
1749981175.5205147,1132
1749981175.5205805,1476
1749981175.521176,1881
1749981175.5222495,2119
1749981175.5319052,2135
1749981175.5319858,1961
1749981175.532057,1695
1749981175.5321264,1424
1749981175.5321946,1201
1749981175.5323367,1049
1749981175.5324116,1102
1749981175.5324807,1415
1749981175.5325503,1836
1749981175.532619,2115
1749981175.5326889,2167
1749981175.5349417,2014
1749981175.5350537,1753
1749981175.5351577,1476
1749981175.5352616,1246
1749981175.5353656,1075
1749981175.5354688,1081
1749981175.5355718,1349
1749981175.5356743,1767
1749981175.5370622,2084
1749981175.5374177,2183
1749981175.5375247,2069
1749981175.537629,1821
1749981175.5377345,1532
1749981175.5378387,1285
1749981175.5379431,1097
1749981175.538047,1065
1749981175.5381496,1290
1749981175.5382679,1696
1749981175.541164,2037
1749981175.5412788,2170
1749981175.541386,2090
1749981175.5414913,1860
1749981175.5416074,1571
1749981175.5417492,1313
1749981175.5418622,1111
1749981175.5419674,1044
1749981175.542071,1227
1749981175.542175,1619
1749981175.5422802,1989
1749981175.5423846,2161
1749981175.542489,2118
1749981175.5425932,1912
1749981175.5427172,1632
1749981175.5428278,1367
1749981175.5429316,1150
1749981175.5430348,1039
1749981175.5916793,1169
1749981175.5921247,1537
1749981175.592204,1935
1749981175.5925603,2150
1749981175.5926392,2141
1749981175.5927162,1949
1749981175.5927932,1671
1749981175.59287,1399
1749981175.592988,1178
1749981175.5930653,1041
1749981175.593142,1124
1749981175.593505,1459
1749981175.5936081,1872
1749981175.5937092,2128
1749981175.5938184,2162
1749981175.5939188,1996
1749981175.5940201,1727
1749981175.5941222,1449
1749981175.594223,1223
1749981175.5943232,1066
1749981175.5944233,1101
1749981175.5945237,1392
1749981175.594624,1806
1749981175.5947242,2098
1749981175.594825,2174
1749981175.5950663,2041
1749981175.5951688,1786
1749981175.5952694,1503
1749981175.5953698,1265
1749981175.5954702,1086
1749981175.595571,1078
1749981175.5956695,1331
1749981175.5957808,1750
1749981175.595881,2079
1749981175.5959787,2191
1749981175.5960786,2085
1749981175.5961785,1841
1749981175.5962782,1556
1749981175.5963783,1309
1749981175.596478,1113
1749981175.5965784,1063
1749981175.5966783,1272
1749981175.5967782,1681
1749981175.5968776,2044
1749981175.596978,2195
1749981175.597076,2122
1749981175.5971763,1891
1749981175.5972767,1604
1749981175.6056077,1348
1749981175.605693,1144
1749981175.6057708,1053
1749981175.605848,1201
1749981175.6059258,1570
1749981175.6060035,1947
1749981175.6060812,2140
1749981175.606158,2116
1749981175.6062343,1913
1749981175.606311,1626
1749981175.6063876,1351
1749981175.606464,1135
1749981175.6065412,1023
1749981175.6125665,1145
1749981175.612649,1508
1749981175.612724,1917
1749981175.6128747,2150
1749981175.6129582,2156
1749981175.6130319,1969
1749981175.6131063,1689
1749981175.6131802,1412
1749981175.6132534,1189
1749981175.6133282,1047
1749981175.6134017,1116
1749981175.613485,1440
1749981175.6135583,1858
1749981175.613632,2126
1749981175.6137044,2170
1749981175.6137772,2013
1749981175.6138506,1751
1749981175.6139243,1472
1749981175.6139982,1236
1749981175.6140714,1059
1749981175.6141448,1075
1749981175.6142178,1367
1749981175.6142905,1808
1749981175.6143632,2129
1749981175.6144364,2213
1749981175.6145093,2078
1749981175.6145823,1823
1749981175.6146548,1543
1749981175.6147277,1301
1749981175.6148007,1102
1749981175.6148741,1061
1749981175.614979,1294
1749981175.6150525,1722
1749981175.6151254,2078
1749981175.6151984,2206
1749981175.615271,2105
1749981175.6153445,1862
1749981175.615431,1579
1749981175.6155074,1332
1749981175.6155832,1130
1749981175.6156528,1056
1749981175.6157274,1242
1749981175.6158016,1648
1749981175.6158755,2028
1749981175.6159499,2197
1749981175.6160238,2135
1749981175.6160963,1911
1749981175.6161704,1627
1749981175.6162453,1368
1749981175.616319,1155
1749981175.6163933,1047
1749981175.6164672,1186
1749981175.6165411,1566
1749981175.6166155,1966
1749981175.6166897,2172
1749981175.616764,2148
1749981175.6168382,1943
1749981175.6171062,1663
1749981175.617182,1396
1749981175.6172566,1177
1749981175.6173322,1042
1749981175.6174004,1133
1749981175.6174598,1482
1749981175.6175358,1903
1749981175.617612,2154
1749981175.617686,2172
1749981175.6177611,1992
1749981175.617835,1720
1749981175.6179082,1447
1749981175.617979,1221
1749981175.6180537,1060
1749981175.618128,1101
1749981175.6182027,1411
1749981175.6791956,1843
1749981175.6799614,2137
1749981175.6803317,2198
1749981175.6806722,2045
1749981175.6810133,1782
1749981175.6813483,1501
1749981175.6817157,1268
1749981175.6820557,1090
1749981175.682397,1089
1749981175.6827352,1354
1749981175.6844661,1776
1749981175.6848269,2097
1749981175.685478,2198
1749981175.7294168,2088
1749981175.7318418,1850
1749981175.7319534,1570
1749981175.7320602,1323
1749981175.7352638,1124
1749981175.7353826,1078
1749981175.7354906,1295
1749981175.7355967,1706
1749981175.7357028,2061
1749981175.7358086,2204
1749981175.7359147,2126
1749981175.7360198,1890
1749981175.736126,1592
1749981175.7362309,1330
1749981175.736337,1133
1749981175.7364426,1069
1749981175.741864,1243
1749981175.7419834,1617
1749981175.7420769,1978
1749981175.7421565,2159
1749981175.7422354,2136
1749981175.7423131,1939
1749981175.7474334,1649
1749981175.750051,1367
1749981175.7502012,1150
1749981175.7508438,1054
1749981175.751041,1190
1749981175.7511604,1543
1749981175.7512648,1921
1749981175.8165581,2133
1749981175.8166425,2145
1749981175.8167152,1973
1749981175.8167875,1692
1749981175.8168602,1398
1749981175.8169317,1166
1749981175.817003,1040
1749981175.8170748,1139
1749981175.8171458,1472
1749981175.8172176,1871
1749981175.817289,2121
1749981175.8173585,2169
1749981175.8174193,2021
1749981175.817486,1749
1749981175.8175573,1445
1749981175.8176284,1198
1749981175.8177001,1045
1749981175.8177712,1094
1749981175.8178422,1385
1749981175.8179135,1785
1749981175.8179915,2069
1749981175.8180625,2159
1749981175.818134,2049
1749981175.8182049,1797
1749981175.8757665,1491
1749981175.8765733,1233
1749981175.8766558,1059
1749981175.8767269,1070
1749981175.876793,1327
1749981175.8768623,1728
1749981175.876949,2044
1749981175.8771188,2167
1749981175.8967218,2087
1749981175.8968046,1849
1749981175.8968792,1538
1749981175.9105754,1262
1749981175.910656,1062
1749981175.9107294,1024
1749981175.9108021,1237
1749981175.9108758,1631
1749981175.9109397,1982
1749981175.9110177,2146
1749981175.9110909,2103
1749981175.9111648,1890
1749981175.9123883,1590
1749981175.929972,1308
1749981175.930803,1094
1749981175.9308777,1016
1749981175.9309442,1180
1749981175.9310064,1554
1749981175.9521606,1929
1749981175.9574862,2129
1749981175.9575963,2123
1749981175.9576771,1934
1749981175.9577556,1645
1749981175.9578345,1359
1749981175.9579117,1139
1749981175.9580083,1031
1749981175.9580858,1150
1749981175.9581637,1493
1749981175.9582412,1883
1749981175.9583373,2119
1749981175.9584153,2149
1749981175.958494,1982
1749981175.9585717,1696
1749981175.9586499,1395
1749981175.9587276,1162
1749981175.9588048,1032
1749981175.9588854,1112
1749981175.9589477,1426
1749981175.9590216,1826
1749981175.9590988,2097
1749981175.9591763,2169
1749981175.9592535,2035
1749981175.9593308,1764
1749981175.959408,1453
1749981175.9594848,1204
1749981175.9595668,1049
1749981175.9662344,1091
1749981175.9710562,1377
1749981175.9713833,1786
1749981175.9715567,2089
1749981175.9716463,2193
1749981175.9717264,2091
1749981175.9718044,1840
1749981175.9718823,1532
1749981175.9719603,1266
1749981175.9720376,1079
1749981175.9721155,1067
1749981175.97219,1310
1749981175.9726372,1719
1749981175.9727204,2056
1749981175.9727983,2194
1749981175.9728758,2120
1749981175.9729533,1889
1749981175.9730325,1590
1749981175.9731097,1320
1749981175.9731886,1115
1749981175.973266,1055
1749981175.9733453,1246
1749981175.9734075,1639
1749981175.9734857,2007
1749981175.9735632,2185
1749981175.9736407,2151
1749981175.9737175,1946
1749981175.9737947,1657
1749981175.973872,1379
1749981175.9739492,1160
1749981175.974026,1064
1749981175.9741025,1217
1749981175.9741795,1601
1749981175.974257,2000
1749981175.9743338,2210
1749981175.9744105,2196
1749981175.9744873,2001
1749981175.974564,1723
1749981175.9746408,1450
1749981175.974718,1225
1749981175.9747953,1087
1749981175.9748724,1177
1749981175.9749472,1525
1749981175.975021,1949
1749981175.9750984,2205
1749981175.975178,2228
1749981175.9752576,2054
1749981175.9753249,1786
1749981175.9753923,1510
1749981175.9754605,1271
1749981175.975538,1096
1749981175.9958084,1138
1749981175.9991243,1467
1749981175.999199,1926
1749981176.0136821,2232
1749981176.0279586,2283
1749981176.0280397,2116
1749981176.0281134,1851
1749981176.028186,1581
1749981176.0282726,1350
1749981176.0283546,1152
1749981176.0284271,1117
1749981176.0285006,1360
1749981176.0285733,1787
1749981176.0286465,2128
1749981176.0287187,2240
1749981176.028791,2123
1749981176.0288634,1871
1749981176.0289357,1585
1749981176.0290077,1339
1749981176.0290792,1140
1749981176.0291514,1086
1749981176.0299592,1297
1749981176.0345159,1711
1749981176.0359204,2072
1749981176.0362933,2217
1749981176.0366535,2136
1749981176.069021,1906
1749981176.1186755,1624
1749981176.1195602,1371
1749981176.1196342,1161
1749981176.1673598,1070
1749981176.1929827,1240
1749981176.1930695,1644
1749981176.1931443,2038
1749981176.1932178,2216
1749981176.1932902,2160
1749981176.1933625,1945
1749981176.193435,1680
1749981176.193508,1433
1749981176.1935856,1211
1749981176.193658,1072
1749981176.1937306,1191
1749981176.193803,1592
1749981176.1938753,2045
1749981176.1939473,2279
1749981176.1940196,2244
1749981176.1940918,2025
1749981176.1941643,1763
1749981176.1942368,1525
1749981176.1943088,1305
1749981176.1943805,1119
1749981176.1944523,1154
1749981176.194524,1498
1749981176.1945963,1969
1749981176.1946692,2261
1749981176.194742,2274
1749981176.1948135,2074
1749981176.1948848,1809
1749981176.1949792,1566
1749981176.1950457,1351
1749981176.1951118,1151
1749981176.1951778,1125
1749981176.1952434,1396
1749981176.1953094,1841
1749981176.1953752,2166
1749981176.1954405,2238
1749981176.1955116,2083
1749981176.1955779,1823
1749981176.1956437,1558
1749981176.205337,1336
1749981176.2071075,1149
1749981176.207189,1111
1749981176.2078798,1341
1749981176.207961,1756
1749981176.2080338,2094
1749981176.2081063,2212
1749981176.2081783,2108
1749981176.2083328,1866
1749981176.2084146,1581
1749981176.2084866,1334
1749981176.2085583,1139
1749981176.2086315,1081
1749981176.2087047,1276
1749981176.2087762,1669
1749981176.2088475,2019
1749981176.2089193,2160
1749981176.2089906,2090
1749981176.2090616,1874
1749981176.2091336,1603
1749981176.209205,1355
1749981176.2155757,1149
1749981176.2156568,1053
1749981176.21573,1207
1749981176.215803,1598
1749981176.2158756,1997
1749981176.2159479,2189
1749981176.2160208,2148
1749981176.2160935,1937
1749981176.2161653,1668
1749981176.2162375,1417
1749981176.2163093,1204
1749981176.2163815,1064
1749981176.2164545,1155
1749981176.2165263,1515
1749981176.2165985,1947
1749981176.216671,2195
1749981176.216743,2194
1749981176.2168143,1997
1749981176.216886,1726
1749981176.2169578,1467
1749981176.2170293,1245
1749981176.2171013,1073
1749981176.2171845,1102
1749981176.217257,1413
1749981176.217328,1853
1749981176.2173994,2146
1749981176.2174718,2195
1749981176.2175434,2031
1749981176.217615,1772
1749981176.2176864,1507
1749981176.2177591,1278
1749981176.217831,1086
1749981176.2179024,1069
1749981176.2179737,1337
1749981176.21805,1778
1749981176.2181258,2111
1749981176.2182019,2199
1749981176.218504,2063
1749981176.221115,1811
1749981176.2222977,1543
1749981176.2362516,1314
1749981176.23634,1113
1749981176.2364187,1053
1749981176.2364976,1268
1749981176.2365758,1695
1749981176.236654,2062
1749981176.236733,2193
1749981176.236827,2088
1749981176.2369049,1845
1749981176.2369838,1574
1749981176.237062,1344
1749981176.2371397,1146
1749981176.2372181,1055
1749981176.2372959,1221
1749981176.2373743,1625
1749981176.237452,2020
1749981176.2375295,2197
1749981176.2376075,2134
1749981176.237685,1911
1749981176.2377625,1639
1749981176.2378402,1394
1749981176.237918,1181
1749981176.2379973,1052
1749981176.238075,1168
1749981176.2381527,1546
1749981176.2382376,1966
1749981176.2817342,2188
1749981176.2821555,2163
1749981176.282457,1952
1749981176.284116,1678
1749981176.285541,1427
1749981176.2856786,1215
1749981176.2858548,1062
1749981176.286005,1115
1749981176.2861354,1430
1749981176.2862654,1842
1749981176.2863948,2101
1749981176.2865236,2131
1749981176.286653,1960
1749981176.2924163,1697
1749981176.2925434,1433
1749981176.2926464,1213
1749981176.2927458,1050
1749981176.2928455,1082
1749981176.2929602,1388
1749981176.2930605,1831
1749981176.2931583,2137
1749981176.2932575,2195
1749981176.2933526,2035
1749981176.2934446,1772
1749981176.2935433,1504
1749981176.2936432,1278
1749981176.2937422,1089
1749981176.2938714,1064
1749981176.2940013,1320
1749981176.294131,1766
1749981176.2942739,2119
1749981176.2944045,2227
1749981176.294535,2102
1749981176.2946634,1855
1749981176.2948048,1590
1749981176.294943,1363
1749981176.295167,1157
1749981176.2981193,1073
1749981176.298193,1259
1749981176.2982728,1673
1749981176.2983398,2053
1749981176.2984056,2208
1749981176.2984726,2125
1749981176.2987776,1895
1749981176.2988434,1625
1749981176.2989047,1386
1749981176.2989702,1177
1749981176.2990372,1069
1749981176.2991033,1219
1749981176.2991688,1621
1749981176.2992346,2031
1749981176.2993007,2222
1749981176.2993674,2168
1749981176.2994335,1949
1749981176.2994998,1684
1749981176.2995663,1445
1749981176.2996323,1232
1749981176.2996979,1084
1749981176.299775,1168
1749981176.299842,1525
1749981176.299908,1951
1749981176.299974,2188
1749981176.30007,2175
1749981176.317695,1971
1749981176.3189895,1701
1749981176.3195996,1453
1749981176.319683,1242
1749981176.3197615,1080
1749981176.3198395,1120
1749981176.3380692,1436
1749981176.3692958,1871
1749981176.3699954,2153
1749981176.3707557,2188
1749981176.372594,2014
1749981176.3733764,1751
1749981176.3735023,1492
1749981176.3736217,1275
1749981176.3762584,1097
1749981176.376384,1095
1749981176.3765101,1371
1749981176.3766456,1811
1749981176.376765,2135
1749981176.3768833,2216
1749981176.377001,2074
1749981176.3771303,1819
1749981176.377248,1552
1749981176.377465,1326
1749981176.377598,1131
1749981176.3777168,1080
1749981176.3778348,1304
1749981176.3779655,1732
1749981176.378084,2092
1749981176.3782012,2218
1749981176.3783283,2109
1749981176.3784747,1865
1749981176.3785932,1595
1749981176.3787546,1361
1749981176.3788857,1157
1749981176.380564,1066
1749981176.383931,1239
1749981176.384718,1648
1749981176.3856637,2038
1749981176.386028,2205
1749981176.3863661,2131
1749981176.3866973,1902
1749981176.3870254,1632
1749981176.3873544,1394
1749981176.387683,1185
1749981176.3880115,1063
1749981176.3885658,1191
1749981176.3893137,1582
1749981176.3919654,2007
1749981176.398681,2223
1749981176.4828541,2185
1749981176.4835052,1968
1749981176.4835844,1697
1749981176.4836624,1451
1749981176.4837399,1237
1749981176.483831,1078
1749981176.4839084,1137
1749981176.4839857,1472
1749981176.4840627,1900
1749981176.4841986,2159
1749981176.4842916,2172
1749981176.4843688,1987
1749981176.484447,1724
1749981176.4845238,1471
1749981176.4846048,1254
1749981176.4846966,1082
1749981176.4847739,1109
1749981176.4848514,1424
1749981176.4849586,1875
1749981176.4850562,2174
1749981176.4858353,2211
1749981176.4870572,2035
1749981176.4871364,1777
1749981176.488897,1526
1749981176.4889884,1308
1749981176.4890995,1110
1749981176.4891903,1081
1749981176.4892762,1357
1749981176.4893627,1833
1749981176.4894478,2197
1749981176.4909315,2285
1749981176.4910192,2127
1749981176.4911053,1866
1749981176.4911897,1613
1749981176.4912748,1399
1749981176.4931893,1187
1749981176.4933255,1084
1749981176.49341,1256
1749981176.4934962,1668
1749981176.4935815,2048
1749981176.493667,2196
1749981176.4937525,2100
1749981176.493839,1860
1749981176.493942,1596
1749981176.4940288,1373
1749981176.4941154,1176
1749981176.4942062,1071
1749981176.4942925,1213
1749981176.494387,1597
1749981176.4986215,1988
1749981176.4987187,2169
1749981176.4988115,2111
1749981176.4989145,1889
1749981176.498994,1621
1749981176.499083,1378
1749981176.499174,1166
1749981176.499506,1038
1749981176.4995985,1169
1749981176.4996872,1583
1749981176.499779,2038
1749981176.4998693,2257
1749981176.4999611,2199
1749981176.5000522,1973
1749981176.5001435,1724
1749981176.5002313,1505
1749981176.5003254,1278
1749981176.500414,1071
1749981176.5005054,1110
1749981176.5005958,1505
1749981176.5006871,2036
1749981176.5007777,2342
1749981176.500868,2312
1749981176.500958,2072
1749981176.501048,1823
1749981176.5040867,1632
1749981176.5324583,1427
1749981176.5325484,1173
1749981176.5326223,1095
1749981176.5326965,1393
1749981176.532767,1927
1749981176.5328388,2308
1749981176.5329103,2350
1749981176.5329814,2133
1749981176.5330532,1872
1749981176.53313,1668
1749981176.5332012,1475
1749981176.5332727,1230
1749981176.533341,1113
1749981176.5424376,1348
1749981176.551064,1858
1749981176.561453,2267
1749981176.5977762,2347
1749981176.66178,2151
1749981176.7144518,1884
1749981176.7453609,1671
1749981176.7454832,1487
1749981176.7455952,1250
1749981176.745704,1091
1749981176.7458694,1254
1749981176.7459793,1730
1749981176.7460966,2176
1749981176.7462065,2314
1749981176.7463152,2160
1749981176.7464244,1897
1749981176.7465327,1672
1749981176.7466414,1490
1749981176.746751,1267
1749981176.7468588,1087
1749981176.7469678,1203
1749981176.7470765,1655
1749981176.7471857,2136
1749981176.7472944,2327
1749981176.7474031,2204
1749981176.747512,1938
1749981176.747621,1709
1749981176.747731,1537
1749981176.747839,1329
1749981176.7479475,1108
1749981176.7480564,1126
1749981176.7481656,1496
1749981176.748284,1985
1749981176.7483933,2242
1749981176.7485023,2185
1749981176.748611,1943
1749981176.7487202,1703
1749981176.7488296,1513
1749981176.7489388,1310
1749981176.7490478,1093
1749981176.7491567,1096
1749981176.7492685,1467
1749981176.749383,2006
1749981176.7494917,2328
1749981176.7496002,2302
1749981176.7497087,2047
1749981176.7498171,1781
1749981176.7499256,1590
1749981176.7500367,1417
1749981176.7501452,1192
1749981176.750254,1091
1749981176.7503624,1309
1749981176.7504702,1760
1749981176.7505786,2115
1749981176.7506871,2194
1749981176.7507958,2027
1749981176.7509046,1771
1749981176.7510126,1535
1749981176.751121,1333
1749981176.7512298,1127
1749981176.7513375,1050
1749981176.7514458,1278
1749981176.751518,1744
1749981176.7515903,2129
1749981176.7616413,2228
1749981176.7626529,2074
1749981176.7631652,1820
1749981176.763314,1584
1749981176.7637594,1377
1749981176.764129,1153
1749981176.7791667,1027
1749981176.805452,1219
1749981176.806319,1712
1749981176.8063934,2175
1749981176.8064654,2327
1749981176.8065329,2178
1749981176.8066,1914
1749981176.8066673,1693
1749981176.8067353,1519
1749981176.8068027,1299
1749981176.8068695,1087
1749981176.8069365,1140
1749981176.8070037,1542
1749981176.8070798,2026
1749981176.807148,2260
1749981176.8072224,2181
1749981176.8072956,1931
1749981176.8077378,1689
1749981176.8078163,1500
1749981176.8078904,1291
1749981176.8079584,1074
1749981176.8080277,1087
1749981176.811654,1451
1749981176.8170996,1952
1749981176.817183,2232
1749981176.8172612,2189
1749981176.8173373,1944
1749981176.8173974,1691
1749981176.8174677,1498
1749981176.8175344,1305
1749981176.8176005,1085
1749981176.817671,1056
1749981176.8177485,1385
1749981176.8178263,1909
1749981176.8179035,2248
1749981176.8179812,2250
1749981176.8180583,2017
1749981176.8181355,1764
1749981176.8182123,1577
1749981176.8183863,1397
1749981176.8184662,1154
1749981176.8185441,1039
1749981176.8186216,1276
1749981176.8186991,1780
1749981176.8187761,2174
1749981176.8188624,2237
1749981176.818931,2034
1749981176.818997,1775
1749981176.8190744,1581
1749981176.8191516,1409
1749981176.8192284,1172
1749981176.8193057,1019
1749981176.8193827,1205
1749981176.8194597,1710
1749981176.8195364,2165
1749981176.8196132,2283
1749981176.81969,2097
1749981176.8198023,1823
1749981176.8198922,1620
1749981176.81997,1463
1749981176.8200471,1237
1749981176.8201241,1032
1749981176.8202007,1130
1749981176.8202777,1590
1749981176.8203547,2087
1749981176.8204317,2278
1749981176.8205085,2138
1749981176.8205876,1860
1749981176.8206642,1639
1749981176.820741,1483
1749981176.8208249,1280
1749981176.8208907,1062
1749981176.8209572,1101
1749981176.8210258,1510
1749981176.8211029,2023
1749981176.8211799,2269
1749981176.8212569,2177
1749981176.8213341,1908
1749981176.8213935,1674
1749981176.8214643,1513
1749981176.821541,1323
1749981176.8216357,1086
1749981176.8217134,1053
1749981176.821791,1393
1749981176.8218694,1912
1749981176.8219476,2223
1749981176.8220253,2191
1749981176.8221018,1937
1749981176.8221786,1681
1749981176.8222556,1500
1749981176.8223329,1322
1749981176.8224099,1093
1749981176.8224869,1025
1749981176.8225636,1322
1749981176.822641,1851
1749981176.8227184,2220
1749981176.8228066,2239
1749981176.822867,2004
1749981176.822926,1738
1749981176.8233604,1550
1749981176.8351555,1383
1749981176.8352392,1149
1749981176.921659,1015
1749981176.9356859,1224
1749981176.9357653,1724
1749981176.936129,2148
1749981176.996497,2243
1749981177.0064092,2052
1749981177.0072567,1778
1749981177.025054,1567
1749981177.0453794,1406
1749981177.0532138,1198
1749981177.053298,1038
1749981177.0533662,1160
1749981177.053431,1584
1749981177.0535097,2015
1749981177.053588,2182
1749981177.0536659,2065
1749981177.0537434,1802
1749981177.0538204,1548
1749981177.0538983,1354
1749981177.0539763,1169
1749981177.0540543,1028
1749981177.0541317,1118
1749981177.0542102,1481
1749981177.054288,1893
1749981177.0543654,2098
1749981177.0544426,2049
1749981177.0545204,1825
1749981177.054598,1557
1749981177.0546758,1326
1749981177.054753,1126
1749981177.0548403,983
1749981177.0549457,1062
1749981177.0550244,1419
1749981177.0550988,1855
1749981177.0551782,2095
1749981177.0552952,2072
1749981177.0553734,1863
1749981177.0554504,1607
1749981177.0555282,1378
1749981177.0556056,1172
1749981177.0556836,990
1749981177.0557606,1017
1749981177.055838,1364
1749981177.0559156,1863
1749981177.0559926,2183
1749981177.0560696,2200
1749981177.056147,1989
1749981177.0562248,1724
1749981177.056302,1499
1749981177.0563793,1299
1749981177.0564568,1083
1749981177.056534,1015
1749981177.0566118,1263
1749981177.0566897,1737
1749981177.0567791,2110
1749981177.0568573,2200
1749981177.0569363,2037
1749981177.057014,1779
1749981177.057092,1539
1749981177.0571692,1330
1749981177.0572464,1105
1749981177.0573237,991
1749981177.0573857,1176
1749981177.057456,1622
1749981177.057533,2020
1749981177.0576103,2151
1749981177.0576875,2021
1749981177.057764,1769
1749981177.0578413,1521
1749981177.0579185,1307
1749981177.0579956,1085
1749981177.0580726,961
1749981177.0581498,1152
1749981177.058227,1647
1749981177.0583138,2123
1749981177.0583916,2289
1749981177.0584686,2144
1749981177.058545,1870
1749981177.0586221,1637
1749981177.058699,1457
1749981177.0587835,1237
1749981177.0588603,1025
1749981177.0589256,1080
1749981177.058992,1497
1749981177.0590684,2009
1749981177.0591455,2264
1749981177.0592225,2188
1749981177.0592992,1928
1749981177.0593762,1683
1749981177.0594532,1498
1749981177.05953,1292
1749981177.059607,1062
1749981177.0596836,1048
1749981177.0597608,1395
1749981177.059838,1905
1749981177.0599153,2211
1749981177.0599926,2191
1749981177.060069,1948
1749981177.060146,1684
1749981177.0602229,1482
1749981177.0603032,1294
1749981177.0603802,1076
1749981177.060458,1022
1749981177.060535,1303
1749981177.0751197,1789
1749981177.0752017,2129
1749981177.0752742,2161
1749981177.0753455,1952
1749981177.0754163,1689
1749981177.0754871,1473
1749981177.075558,1279
1749981177.075628,1059
1749981177.0756989,986
1749981177.075769,1257
1749981177.0758395,1778
1749981177.0759096,2177
1749981177.07598,2241
1749981177.076051,2036
1749981177.076121,1773
1749981177.0761914,1573
1749981177.0762627,1397
1749981177.0763335,1155
1749981177.0764055,988
1749981177.0764832,1159
1749981177.0765545,1658
1749981177.0766265,2125
1749981177.0766978,2268
1749981177.0767694,2100
1749981177.076841,1826
1749981177.0769126,1608
1749981177.0769846,1442
1749981177.077056,1225
1749981177.0771275,1029
1749981177.0771987,1114
1749981177.07727,1541
1749981177.077339,2020
1749981177.077403,2230
1749981177.0774746,2129
1749981177.0775456,1866
1749981177.0776167,1618
1749981177.0776877,1431
1749981177.0777593,1235
1749981177.0778306,1044
1749981177.0779018,1075
1749981177.0779736,1421
1749981177.078045,1872
1749981177.0781162,2121
1749981177.078187,2091
1749981177.0800729,1871
1749981177.1525466,1616
1749981177.1618829,1401
1749981177.1619697,1205
1749981177.2138374,1029
1749981177.300544,1060
1749981177.3028672,1402
1749981177.3938208,1876
1749981177.4059112,2159
1749981177.4154491,2148
1749981177.4507718,1931
1749981177.4509583,1677
1749981177.4512827,1464
1749981177.4516037,1270
1749981177.4517567,1065
1749981177.451893,1026
1749981177.452759,1318
1749981177.4528847,1818
1749981177.4546964,2179
1749981177.454817,2230
1749981177.4549484,2035
1749981177.459529,1777
1749981177.4596524,1566
1749981177.4597735,1382
1749981177.4599164,1158
1749981177.4600365,1036
1749981177.4601562,1230
1749981177.460276,1694
1749981177.4605536,2094
1749981177.4606743,2202
1749981177.460805,2044
1749981177.4609237,1791
1749981177.461042,1568
1749981177.4611602,1378
1749981177.4612792,1154
1749981177.4613974,1014
1749981177.4615161,1193
1749981177.4616487,1683
1749981177.4617682,2149
1749981177.4619002,2304
1749981177.4620194,2153
1749981177.4621382,1880
1749981177.4622576,1649
1749981177.462377,1475
1749981177.4624963,1269
1749981177.462615,1069
1749981177.4627335,1105
1749981177.4628522,1459
1749981177.4629712,1898
1749981177.4630902,2131
1749981177.4632084,2088
1749981177.463327,1860
1749981177.4634464,1598
1749981177.4635649,1380
1749981177.4636834,1189
1749981177.4638116,1033
1749981177.4639304,1080
1749981177.464049,1402
1749981177.4641652,1822
1749981177.4642725,2068
1749981177.4643805,2067
1749981177.4644878,1874
1749981177.4645956,1618
1749981177.464703,1381
1749981177.4648101,1177
1749981177.4649217,1008
1749981177.4650865,1039
1749981177.4651947,1368
1749981177.4653025,1838
1749981177.4654105,2137
1749981177.466487,2153
1749981177.4665973,1958
1749981177.466687,1710
1749981177.466763,1492
1749981177.4880168,1288
1749981177.507515,1068
1749981177.5083497,1010
1749981177.508457,1295
1749981177.5085623,1814
1749981177.5086672,2206
1749981177.5087717,2272
1749981177.508876,2079
1749981177.5089855,1825
1749981177.5090966,1623
1749981177.5150652,1439
1749981177.51532,1191
1749981177.5155032,1032
1749981177.51565,1212
1749981177.515834,1710
1749981177.5160031,2166
1749981177.5161643,2301
1749981177.5163457,2136
1749981177.516531,1871
1749981177.5167422,1656
1749981177.516979,1478
1749981177.5171356,1238
1749981177.5174155,1039
1749981177.5175965,1153
1749981177.5177765,1625
1749981177.5179508,2122
1749981177.518675,2310
1749981177.5189633,2170
1749981177.5190516,1898
1749981177.5191407,1679
1749981177.5192947,1517
1749981177.5194473,1300
1749981177.5195303,1073
1749981177.5196664,1120
1749981177.5198388,1550
1749981177.519958,2082
1749981177.52004,2335
1749981177.5201213,2235
1749981177.5202036,1958
1749981177.5202858,1723
1749981177.5203662,1565
1749981177.520448,1377
1749981177.5205317,1138
1749981177.5206268,1097
1749981177.5207093,1424
1749981177.5207949,1928
1749981177.520877,2233
1749981177.5209582,2210
1749981177.5210404,1972
1749981177.5299997,1722
1749981177.5954294,1534
1749981177.6279228,1352
1749981177.639751,1129
1749981177.6890917,1066
1749981177.6934164,1342
1749981177.8020911,1829
1749981177.8034487,2167
1749981177.8299425,2193
1749981177.8352273,1985
1749981177.8353496,1732
1749981177.8354657,1527
1749981177.8355815,1343
1749981177.835698,1124
1749981177.8358142,1034
1749981177.8359294,1280
1749981177.8360443,1785
1749981177.8361592,2190
1749981177.8362744,2273
1749981177.8363895,2081
1749981177.8365052,1808
1749981177.83662,1591
1749981177.836735,1424
1749981177.8368492,1217
1749981177.8369637,1060
1749981177.8370786,1174
1749981177.8371935,1575
1749981177.8373086,1981
1749981177.8375707,2141
1749981177.8376863,2038
1749981177.8378007,1800
1749981177.8379152,1561
1749981177.8380299,1356
1749981177.8381445,1143
1749981177.838268,996
1749981177.838384,1130
1749981177.8384979,1572
1749981177.8390396,2039
1749981177.839156,2230
1749981177.8392823,2121
1749981177.839396,1864
1749981177.8395069,1625
1749981177.83962,1437
1749981177.839733,1228
1749981177.8398457,1028
1749981177.8706465,1081
1749981177.8707361,1490
1749981177.8708138,2010
1749981177.8708913,2280
1749981177.870968,2218
1749981177.8831422,1969
1749981177.9175627,1734
1749981177.9192479,1554
1749981177.9289625,1345
1749981177.9628565,1090
1749981177.9947188,1042
1749981178.0103676,1379
1749981178.026803,1923
1749981178.0883074,2271
1749981178.089401,2267
1749981178.0900984,2024
1749981178.0902607,1764
1749981178.0903673,1576
1749981178.0904727,1396
1749981178.1379142,1156
1749981178.1384869,1053
1749981178.1388314,1301
1749981178.1475923,1807
1749981178.150206,2196
1749981178.1503227,2258
1749981178.1504297,2049
1749981178.1519341,1771
1749981178.1532032,1551
1749981178.1533244,1375
1749981178.154212,1162
1749981178.154326,1039
1749981178.154435,1218
1749981178.15454,1671
1749981178.1546454,2078
1749981178.154795,2205
1749981178.1549008,2060
1749981178.1559029,1798
1749981178.1560092,1554
1749981178.1561143,1353
1749981178.1562204,1143
1749981178.1563268,1018
1749981178.1564317,1187
1749981178.156536,1647
1749981178.1566398,2093
1749981178.1567442,2256
1749981178.156849,2131
1749981178.1857944,1872
1749981178.1858838,1629
1749981178.1859622,1432
1749981178.1860394,1219
1749981178.1861155,1043
1749981178.1861923,1126
1749981178.1862679,1529
1749981178.186344,1998
1749981178.1864195,2225
1749981178.186495,2159
1749981178.1865711,1924
1749981178.1866462,1680
1749981178.186724,1472
1749981178.186817,1251
1749981178.1868896,1038
1749981178.1869535,1062
1749981178.1871073,1431
1749981178.1871872,1931
1749981178.187263,2214
1749981178.1873388,2183
1749981178.187414,1952
1749981178.18749,1707
1749981178.187565,1508
1749981178.1876404,1302
1749981178.1877155,1068
1749981178.1877909,1028
1749981178.187866,1354
1749981178.1879396,1885
1749981178.1880121,2240
1749981178.188084,2251
1749981178.1881564,2016
1749981178.1882281,1751
1749981178.1883352,1555
1749981178.1884086,1375
1749981178.188481,1139
1749981178.1885538,1026
1749981178.1886256,1259
1749981178.1886976,1763
1749981178.1887698,2169
1749981178.1888404,2250
1749981178.1889124,2055
1749981178.1889849,1789
1749981178.1890564,1577
1749981178.1891284,1397
1749981178.1892006,1166
1749981178.1892796,1018
1749981178.189344,1195
1749981178.1894062,1681
1749981178.189478,2134
1749981178.1895506,2277
1749981178.1896226,2121
1749981178.189695,1853
1749981178.1897671,1625
1749981178.1898396,1443
1749981178.1899118,1222
1749981178.1899843,1041
1749981178.190058,1148
1749981178.1901321,1586
1749981178.1902049,2055
1749981178.190287,2241
1749981178.1903598,2119
1749981178.1904323,1855
1749981178.1905046,1623
1749981178.1905754,1446
1749981178.190648,1234
1749981178.1907206,1024
1749981178.190793,1074
1749981178.1908655,1484
1749981178.1909268,1991
1749981178.190992,2229
1749981178.1910646,2126
1749981178.1911373,1852
1749981178.191219,1618
1749981178.1912925,1462
1749981178.1913657,1277
1749981178.1914377,1043
1749981178.1915104,1023
1749981178.1920395,1395
1749981178.2654006,1960
1749981178.284899,2304
1749981178.3055847,2276
1749981178.3125594,2007
1749981178.3135872,1740
1749981178.3197505,1554
1749981178.3206563,1367
1749981178.322204,1114
1749981178.3227391,1013
1749981178.3231742,1283
1749981178.3241463,1807
1749981178.3242211,2193
1749981178.3246918,2241
1749981178.395488,2029
1749981178.3961856,1775
1749981178.401869,1589
1749981178.4022772,1422
1749981178.4023523,1192
1749981178.408304,1062
1749981178.4193847,1262
1749981178.419472,1744
1749981178.419542,2151
1749981178.4196134,2247
1749981178.4196832,2074
1749981178.4198313,1820
1749981178.4242127,1612
1749981178.4243064,1433
1749981178.424383,1203
1749981178.424455,1051
1749981178.4245305,1224
1749981178.4246204,1716
1749981178.4246943,2177
1749981178.4247618,2314
1749981178.4248314,2145
1749981178.4318168,1874
1749981178.4318945,1663
1749981178.431968,1501
1749981178.4320405,1279
1749981178.432112,1064
1749981178.4321828,1127
1749981178.4322548,1547
1749981178.4323258,2034
1749981178.4323971,2246
1749981178.4324682,2139
1749981178.4325397,1878
1749981178.4326105,1649
1749981178.4326816,1473
1749981178.432753,1261
1749981178.4328244,1038
1749981178.432895,1064
1749981178.4329655,1464
1749981178.4330366,1995
1749981178.4331088,2275
1749981178.4331799,2209
1749981178.4332514,1942
1749981178.4333196,1690
1749981178.4333801,1514
1749981178.4334474,1336
1749981178.4335184,1110
1749981178.4335885,1047
1749981178.4336593,1324
1749981178.4337304,1805
1749981178.4338007,2139
1749981178.433871,2168
1749981178.4339418,1958
1749981178.4340127,1693
1749981178.4340837,1479
1749981178.4341545,1299
1749981178.434226,1096
1749981178.4342983,1022
1749981178.4343696,1256
1749981178.4344404,1716
1749981178.4345114,2078
1749981178.434582,2154
1749981178.4346526,1976
1749981178.4347248,1710
1749981178.4347959,1473
1749981178.4348595,1277
1749981178.434936,1073
1749981178.4350052,991
1749981178.4350815,1225
1749981178.4351518,1724
1749981178.435223,2147
1749981178.4352937,2257
1749981178.47306,2084
1749981178.4918659,1814
1749981178.49197,1584
1749981178.492341,1399
1749981178.492416,1179
1749981178.4925995,1007
1749981178.4953077,1117
1749981178.4953833,1541
1749981178.4954503,1994
1749981178.4955175,2191
1749981178.495584,2098
1749981178.49565,1849
1749981178.495718,1599
1749981178.495785,1395
1749981178.495851,1185
1749981178.4959178,1006
1749981178.4959874,1064
1749981178.4960537,1429
1749981178.496121,1878
1749981178.4961874,2117
1749981178.4962537,2082
1749981178.49632,1862
1749981178.496386,1605
1749981178.4964523,1380
1749981178.4965189,1172
1749981178.4965851,1001
1749981178.496662,1066
1749981178.4967299,1458
1749981178.4967968,1967
1749981178.496863,2255
1749981178.49693,2227
1749981178.4969966,1987
1749981178.497063,1722
1749981178.4971292,1513
1749981178.4971938,1324
1749981178.4972532,1113
1749981178.4973135,1053
1749981178.497376,1304
1749981178.497442,1757
1749981178.4975085,2093
1749981178.497577,2156
1749981178.4976442,1985
1749981178.4977107,1733
1749981178.4977763,1497
1749981178.4978435,1283
1749981178.49791,1065
1749981178.4979796,999
1749981178.4980462,1257
1749981178.4981127,1749
1749981178.4981797,2135
1749981178.498256,2217
1749981178.4983263,2042
1749981178.4983919,1780
1749981178.4984584,1547
1749981178.4985242,1339
1749981178.4985902,1105
1749981178.4986563,985
1749981178.4987226,1207
1749981178.4987888,1731
1749981178.4988496,2197
1749981178.4989123,2326
1749981178.4989772,2153
1749981178.4990432,1887
1749981178.499109,1680
1749981178.4991746,1504
1749981178.4992404,1254
1749981178.4993062,1026
1749981178.4993722,1114
1749981178.4994383,1582
1749981178.499504,2103
1749981178.49957,2316
1749981178.4996357,2185
1749981178.499702,1906
1749981178.4997678,1679
1749981178.4998343,1515
1749981178.4998999,1299
1749981178.4999664,1058
1749981178.5000324,1076
1749981178.500098,1485
1749981178.5001643,2026
1749981178.5002298,2308
1749981178.5002956,2234
1749981178.5003617,1960
1749981178.5004292,1711
1749981178.5004957,1540
1749981178.5005617,1351
1749981178.5006285,1110
1749981178.500695,1060
1749981178.5007672,1383
1749981178.5008376,1905
1749981178.5009086,2236
1749981178.5009792,2221
1749981178.50105,1968
1749981178.501121,1700
1749981178.501192,1512
1749981178.5012627,1342
1749981178.501331,1120
1749981178.50139,1037
1749981178.5014582,1297
1749981178.5243208,1800
1749981178.5455215,2173
1749981178.5456479,2217
1749981178.546173,2001
1749981178.5464723,1736
1749981178.546548,1535
1749981178.5466206,1361
1749981178.5539746,1134
1749981178.5541987,1017
1749981178.554432,1245
1749981178.5604177,1764
1749981178.5629003,2197
1749981178.5629735,2289
1749981178.563044,2090
1749981178.563114,1820
1749981178.5631824,1619
1749981178.563256,1453
1749981178.563325,1218
1749981178.5633929,1036
1749981178.5634623,1183
1749981178.5635304,1675
1749981178.5635986,2162
1749981178.5636718,2322
1749981178.5637395,2160
1749981178.5960598,1884
1749981178.6302073,1669
1749981178.63028,1506
1749981178.630348,1285
1749981178.6304154,1065
1749981178.6304827,1120
1749981178.6305494,1539
1749981178.6306171,2040
1749981178.630684,2275
1749981178.6307504,2183
1749981178.630816,1917
1749981178.6341026,1667
1749981178.6685727,1483
1749981178.6712208,1293
1749981178.6716177,1090
1749981178.6717024,1086
1749981178.6737924,1400
1749981178.6738653,1852
1749981178.6739323,2130
1749981178.6739993,2131
1749981178.6740656,1922
1749981178.674132,1657
1749981178.6741993,1427
1749981178.674266,1234
1749981178.6743324,1062
1749981178.674399,1067
1749981178.674466,1353
1749981178.6745322,1784
1749981178.674599,2067
1749981178.674666,2093
1749981178.674732,1911
1749981178.674798,1659
1749981178.6748574,1419
1749981178.6965432,1207
1749981178.6966562,1012
1749981178.7038994,995
1749981178.7041042,1305
1749981178.704298,1818
1749981178.7044928,2188
1749981178.7046854,2242
1749981178.7062023,2051
1749981178.7064478,1800
1749981178.7072868,1588
1749981178.7073588,1388
1749981178.7074258,1136
1749981178.7084029,996
1749981178.7084813,1211
1749981178.7085483,1738
1749981178.7086155,2203
1749981178.7086825,2327
1749981178.7087517,2148
1749981178.7088196,1879
1749981178.7088866,1670
1749981178.708952,1489
1749981178.7090194,1235
1749981178.709086,1019
1749981178.709153,1130
1749981178.709218,1611
1749981178.70928,2123
1749981178.709342,2321
1749981178.7094085,2184
1749981178.7094753,1906
1749981178.7095482,1677
1749981178.7096167,1505
1749981178.7096837,1285
1749981178.7097514,1052
1749981178.7098205,1074
1749981178.7098892,1465
1749981178.7099574,1971
1749981178.7100265,2233
1749981178.7100952,2168
1749981178.7101634,1910
1749981178.7102323,1656
1749981178.7103064,1465
1749981178.7103734,1271
1749981178.7104416,1063
1749981178.7105086,1061
1749981178.7105758,1402
1749981178.7106438,1901
1749981178.7107103,2204
1749981178.7107766,2186
1749981178.7108378,1943
1749981178.710901,1668
1749981178.7109685,1458
1749981178.711038,1280
1749981178.7111514,1085
1749981178.7112486,1041
1749981178.7113194,1308
1749981178.7113879,1773
1749981178.7114556,2109
1749981178.711525,2159
1749981178.7703218,1974
1749981178.7763393,1718
1749981178.7764227,1492
1749981178.7777069,1291
1749981178.7778037,1075
1749981178.7778769,998
1749981178.7831798,1244
1749981178.7832558,1731
1749981178.7833307,2114
1749981178.7834008,2193
1749981178.7834673,2017
1749981178.7835383,1766
1749981178.7836058,1550
1749981178.7836738,1353
1749981178.7837405,1115
1749981178.7838087,981
1749981178.7838774,1198
1749981178.7839465,1732
1749981178.7840123,2210
1749981178.7840812,2341
1749981178.784149,2161
1749981178.7842171,1890
1749981178.7842839,1685
1749981178.7843506,1519
1749981178.7844193,1278
1749981178.784486,1045
1749981178.7845519,1107
1749981178.7846203,1541
1749981178.7846863,2043
1749981178.7847526,2268
1749981178.784821,2167
1749981178.784893,1906
1749981178.784974,1672
1749981178.7850416,1496
1749981178.7851088,1292
1749981178.7851758,1074
1749981178.7883406,1076
1749981178.7884123,1412
1749981178.7884798,1874
1749981178.7885504,2133
1749981178.788683,2102
1749981178.7887506,1877
1749981178.7888165,1623
1749981178.788882,1411
1749981178.7889478,1216
1749981178.7890153,1035
1749981178.789082,1059
1749981178.7891421,1402
1749981178.789207,1885
1749981178.78927,2175
1749981178.7893307,2165
1749981178.7893965,1946
1749981178.7894626,1693
1749981178.7895286,1482
1749981178.7895944,1288
1749981178.7896607,1076
1749981178.7897236,1027
1749981178.78979,1308
1749981178.7898552,1804
1749981178.7899213,2171
1749981178.789987,2232
1749981178.790053,2047
1749981178.7901182,1792
1749981178.790185,1575
1749981178.7902513,1388
1749981178.7903168,1167
1749981178.7903829,1045
1749981178.7904482,1223
1749981178.7905138,1666
1749981178.7905796,2062
1749981178.790645,2185
1749981178.790711,2048
1749981178.7907753,1799
1749981178.7908363,1565
1749981178.8173957,1364
1749981178.8315754,1147
1749981178.8317847,1014
1749981178.831898,1185
1749981178.832009,1658
1749981178.832117,2119
1749981178.8322332,2285
1749981178.832344,2150
1749981178.8327436,1879
1749981178.8328547,1636
1749981178.8329647,1450
1749981178.8330743,1243
1749981178.833184,1059
1749981178.8332853,1131
1749981178.8333938,1533
1749981178.833503,2014
1749981178.8336132,2254
1749981178.8337243,2189
1749981178.833833,1945
1749981178.833943,1693
1749981178.8340526,1489
1749981178.8341632,1280
1749981178.8342726,1076
1749981178.834383,1095
1749981178.834493,1449
1749981178.8346024,1934
1749981178.834711,2212
1749981178.834817,2189
1749981178.8349295,1967
1749981178.8350399,1719
1749981178.8351495,1507
1749981178.8352602,1295
1749981178.8353703,1074
1749981178.8354807,1059
1749981178.8355906,1400
1749981178.8356996,1928
1749981178.835809,2269
1749981178.8359187,2275
1749981178.836028,2045
1749981178.836139,1784
1749981178.8362486,1582
1749981178.8363566,1396
1749981178.8364666,1160
1749981178.8405206,1047
1749981178.9058833,1265
1749981178.9060397,1742
1749981178.9061873,2129
1749981178.906333,2219
1749981178.9064775,2047
1749981178.9066226,1792
1749981178.9067671,1571
1749981178.9114418,1378
1749981178.911643,1155
1749981178.9118087,1035
1749981178.9119718,1237
1749981178.9121351,1727
1749981178.9122975,2162
1749981178.9124606,2286
1749981178.9126236,2123
1749981178.912787,1857
1749981178.9129593,1630
1749981178.9131224,1440
1749981178.913279,1211
1749981178.9134352,1040
1749981178.9135976,1181
1749981178.9137602,1661
1749981178.913923,2155
1749981178.9140856,2339
1749981178.9142482,2205
1749981178.9144104,1940
1749981178.9145756,1721
1749981178.9147377,1548
1749981178.9150887,1317
1749981178.9340398,1075
1749981178.934113,1103
1749981178.9341824,1514
1749981178.9342484,2042
1749981178.934316,2310
1749981178.9343827,2235
1749981178.9344532,1970
1749981178.9345202,1723
1749981178.9345868,1541
1749981178.934652,1337
1749981178.934719,1104
1749981178.9347842,1089
1749981178.9348445,1449
1749981178.98143,1983
1749981179.0069873,2302
1749981179.0073366,2274
1749981179.0076733,2021
1749981179.0080092,1760
1749981179.0083654,1569
1749981179.0086982,1385
1749981179.009023,1150
1749981179.0093555,1059
1749981179.0096812,1310
1749981179.0100067,1794
1749981179.0103302,2156
1749981179.0106537,2211
1749981179.010977,2014
1749981179.0113008,1744
1749981179.0217087,1517
1749981179.0325162,1329
1749981179.0328643,1125
1749981179.0331995,1038
1749981179.0335236,1249
1749981179.0338619,1698
1749981179.0341997,2072
1749981179.034536,2173
1749981179.03488,2021
1749981179.0352497,1766
1749981179.0355933,1525
1749981179.0359344,1325
1749981179.0362723,1119
1749981179.0366082,1009
1749981179.0369594,1189
1749981179.037299,1640
1749981179.0376258,2065
1749981179.0379643,2214
1749981179.0384955,2087
1749981179.0679102,1833
1749981179.0684233,1591
1749981179.093625,1389
1749981179.0958767,1168
1749981179.0972397,1002
1749981179.097697,1126
1749981179.1006494,1580
1749981179.1021106,2076
1749981179.111852,2289
1749981179.1119637,2183
1749981179.113598,1917
1749981179.1137078,1675
1749981179.1145556,1488
1749981179.1146657,1272
1749981179.11477,1050
1749981179.1151018,1074
1749981179.1834042,1470
1749981179.183519,2001
1749981179.1835938,2298
1749981179.183858,2253
1749981179.1839755,1996
1749981179.1840568,1736
1749981179.1841378,1542
1749981179.2103236,1347
1749981179.2104397,1120
1749981179.210741,1070
1749981179.2108493,1364
1749981179.210955,1854
1749981179.2110631,2186
1749981179.2111697,2211
1749981179.2112744,2002
1749981179.2113793,1738
1749981179.2114854,1511
1749981179.2116153,1304
1749981179.2117324,1085
1749981179.2118375,1033
1749981179.211942,1319
1749981179.2120512,1826
1749981179.2121558,2196
1749981179.212261,2248
1749981179.2123656,2048
1749981179.2124705,1785
1749981179.2125769,1567
1749981179.212682,1374
1749981179.2127867,1146
1749981179.2128913,1027
1749981179.212996,1237
1749981179.2131011,1729
1749981179.2132058,2155
1749981179.213311,2268
1749981179.2134159,2097
1749981179.2135203,1830
1749981179.2136254,1608
1749981179.2137384,1425
1749981179.2138429,1199
1749981179.2139475,1022
1749981179.2140522,1140
1749981179.2141564,1583
1749981179.214261,2047
1749981179.2143655,2233
1749981179.2144709,2116
1749981179.2145748,1853
1749981179.2146833,1609
1749981179.2147882,1416
1749981179.214894,1204
1749981179.2150476,1019
1749981179.2167802,1097
1749981179.2168798,1512
1749981179.2170453,2004
1749981179.217232,2241
1749981179.2173066,2161
1749981179.2173722,1902
1749981179.2174451,1647
1749981179.2175179,1451
1749981179.2175908,1255
1749981179.217669,1053
1749981179.2177417,1059
1749981179.2178144,1396
1749981179.217887,1879
1749981179.2179596,2177
1749981179.2180324,2176
1749981179.2181048,1955
1749981179.2182417,1688
1749981179.2185843,1465
1749981179.218658,1273
1749981179.2187302,1076
1749981179.2188027,1035
1749981179.218872,1287
1749981179.2189317,1721
1749981179.219004,2039
1749981179.2190762,2099
1749981179.2191486,1930
1749981179.2192216,1668
1749981179.2192934,1416
1749981179.2193673,1206
1749981179.2194405,1018
1749981179.2195125,990
1749981179.2195892,1264
1749981179.2196622,1744
1749981179.2197347,2113
1749981179.219807,2195
1749981179.2198796,2027
1749981179.219952,1765
1749981179.2200243,1524
1749981179.2200968,1319
1749981179.2201686,1105
1749981179.2202408,999
1749981179.220313,1198
1749981179.2203858,1672
1749981179.2204578,2104
1749981179.2205303,2247
1749981179.2206018,2107
1749981179.2206743,1846
1749981179.2207465,1606
1749981179.220819,1409
1749981179.2208924,1185
1749981179.220968,1004
1749981179.2210407,1092
1749981179.2211127,1496
1749981179.221185,1952
1749981179.2212572,2169
1749981179.2213247,2101
1749981179.2213845,1865
1749981179.2214506,1613
1749981179.2215257,1395
1749981179.2217467,1173
1749981179.2218254,996
1749981179.2218983,1091
1749981179.2219713,1526
1749981179.222044,2039
1749981179.222116,2287
1749981179.2221882,2208
1749981179.2222605,1950
1749981179.2223327,1707
1749981179.222405,1521
1749981179.2224793,1313
1749981179.2225523,1079
1749981179.2226243,1069
1749981179.222697,1441
1749981179.2227693,1990
1749981179.2228425,2321
1749981179.2229092,2296
1749981179.2229693,2045
1749981179.2230508,1789
1749981179.2231185,1598
1749981179.2231863,1396
1749981179.2232573,1138
1749981179.2233298,1047
1749981179.2234025,1336
1749981179.223475,1876
1749981179.2235618,2268
1749981179.2236419,2315
1749981179.2237163,2096
1749981179.2237895,1825
1749981179.2238617,1615
1749981179.2239342,1433
1749981179.2240067,1202
1749981179.2240794,1060
1749981179.224152,1221
1749981179.224225,1648
1749981179.2242973,2030
1749981179.22437,2152
1749981179.2244425,2021
1749981179.2245154,1773
1749981179.2245877,1525
1749981179.2246642,1316
1749981179.2247367,1111
1749981179.2248087,1008
1749981179.224882,1189
1749981179.2249732,1630
1749981179.225046,2042
1749981179.2251182,2187
1749981179.2266057,2065
1749981179.2266998,1810
1749981179.2267756,1561
1749981179.2268484,1360
1749981179.2270265,1157
1749981179.2270992,1006
1749981179.227172,1116
1749981179.2272482,1530
1749981179.232598,1991
1749981179.2326772,2202
1749981179.2327511,2120
1749981179.2328248,1875
1749981179.2328978,1633
1749981179.2329712,1437
1749981179.2330441,1224
1749981179.2331173,1018
1749981179.23319,1061
1749981179.233262,1467
1749981179.2333338,1999
1749981179.2333944,2284
1749981179.2334645,2226
1749981179.2335374,1967
1749981179.2336097,1719
1749981179.2336826,1536
1749981179.233755,1333
1749981179.2338274,1083
1749981179.2812324,1030
1749981179.2945995,1364
1749981179.316835,1914
1749981179.3169482,2277
1749981179.317053,2281
1749981179.317943,2036
1749981179.3186731,1772
1749981179.3188012,1587
1749981179.3190227,1412
1749981179.3191566,1168
1749981179.3194754,1036
1749981179.319587,1242
1749981179.3196929,1716
1749981179.319798,2100
1749981179.3199124,2180
1749981179.320017,1994
1749981179.320122,1727
1749981179.320226,1504
1749981179.3204525,1320
1749981179.320557,1110
1749981179.3206599,1011
1749981179.3208098,1232
1749981179.320914,1727
1749981179.3210313,2151
1749981179.3211346,2257
1749981179.321238,2080
1749981179.3214593,1812
1749981179.3215632,1596
1749981179.3216836,1423
1749981179.3217869,1203
1749981179.323937,1032
1749981179.324024,1164
1749981179.3241043,1632
1749981179.3241842,2112
1749981179.3242648,2289
1749981179.324344,2151
1749981179.3244226,1883
1749981179.3245025,1663
1749981179.3245819,1494
1749981179.3246613,1277
1749981179.3247383,1063
1749981179.3248174,1120
1749981179.3248959,1544
1749981179.3249888,2061
1749981179.3250673,2307
1749981179.325147,2218
1749981179.325225,1955
1749981179.3253045,1718
1749981179.3253686,1543
1749981179.325441,1340
1749981179.325519,1102
1749981179.3255954,1073
1749981179.3256745,1400
1749981179.3257535,1890
1749981179.3258355,2181
1749981179.3259144,2158
1749981179.3259923,1932
1749981179.3260708,1692
1749981179.3261495,1502
1749981179.3262277,1307
1749981179.3263063,1084
1749981179.326384,1047
1749981179.3264604,1372
1749981179.3265386,1903
1749981179.326617,2252
1749981179.326696,2253
1749981179.3267741,2014
1749981179.3268523,1756
1749981179.3269215,1576
1749981179.3269906,1411
1749981179.327069,1175
1749981179.3271496,1047
1749981179.3272376,1268
1749981179.327315,1771
1749981179.3273945,2173
1749981179.3274727,2235
1749981179.3275504,2022
1749981179.3276286,1761
1749981179.327707,1580
