1749981528.3556983,2087
1749981528.4664216,2282
1749981528.4669125,2212
1749981528.4674406,1946
1749981528.4679196,1594
1749981528.4685116,1266
1749981528.4690156,1015
1749981528.4695024,927
1749981528.469897,1126
1749981528.470329,1570
1749981528.470659,2019
1749981528.4710085,2255
1749981528.4713445,2228
1749981528.496629,1986
1749981528.5150902,1642
1749981528.5151677,1311
1749981528.5152395,1052
1749981528.515309,931
1749981528.51538,1080
1749981528.5154514,1494
1749981528.5155227,1963
1749981528.5155933,2244
1749981528.5156639,2263
1749981528.5157294,2048
1749981528.5158002,1712
1749981528.5158708,1368
1749981528.515942,1095
1749981528.5162842,942
1749981528.5163517,1048
1749981528.5164225,1436
1749981528.5165,1923
1749981528.5165775,2244
1749981528.516654,2301
1749981528.5171921,2110
1749981528.5173113,1784
1749981528.5173893,1436
1749981528.5174675,1152
1749981528.5175443,966
1749981528.5176222,1012
1749981528.5176995,1347
1749981528.5177772,1832
1749981528.5178545,2191
1749981528.5179327,2297
1749981528.5180094,2145
1749981528.5180871,1837
1749981528.5181658,1486
1749981528.5182528,1189
1749981528.518322,981
1749981528.5183887,983
1749981528.5184548,1278
1749981528.5185199,1759
1749981528.5185854,2152
1749981528.5186505,2300
1749981528.5187154,2186
1749981528.518784,1895
1749981528.51885,1539
1749981528.5189154,1227
1749981528.5189826,997
1749981528.519048,955
1749981528.5191157,1204
1749981528.5191813,1671
1749981528.519247,2092
1749981528.5193136,2283
1749981528.5193782,2210
1749981528.5194428,1943
1749981528.5195117,1593
1749981528.5195832,1270
1749981528.5196488,1024
1749981528.519715,944
1749981528.5197804,1150
1749981528.5198555,1600
1749981528.5199318,2049
1749981528.5199986,2280
1749981528.5200646,2246
1749981528.5201302,2000
1749981528.5201902,1657
1749981528.5202496,1325
1749981528.5203156,1061
1749981528.5203795,934
1749981528.5204446,1081
1749981528.5205107,1497
1749981528.522373,1967
1749981528.522446,2243
1749981528.5225132,2254
1749981528.522579,2034
1749981528.5231164,1700
1749981528.5232291,1364
1749981528.5232985,1097
1749981528.5233643,946
1749981528.5234315,1046
1749981528.5234976,1425
1749981528.5235653,1903
1749981528.5236323,2221
1749981528.5236979,2280
1749981528.5237632,2094
1749981528.5238287,1770
1749981528.5238936,1420
1749981528.523958,1133
1749981528.5240278,949
1749981528.5240936,1004
1749981528.5241578,1347
1749981528.5242164,1833
1749981528.524281,2188
1749981528.5309038,2287
1749981528.5309756,2130
1749981528.5310764,1821
1749981528.531148,1471
1749981528.5349593,1178
1749981528.5361533,974
1749981528.53765,981
1749981528.538123,1279
1749981528.5387847,1757
1749981528.5419126,2146
1749981528.5431015,2291
1749981528.5829036,2174
1749981528.5829926,1883
1749981528.5830786,1528
1749981528.5831573,1217
1749981528.583237,988
1749981528.5833156,949
1749981528.5833945,1202
1749981528.5834734,1673
1749981528.5835526,2098
1749981528.5836542,2290
1749981528.583733,2214
1749981528.5838132,1942
1749981528.5838914,1588
1749981528.5839696,1265
1749981528.5840483,1019
1749981528.584127,937
1749981528.5842052,1141
1749981528.58427,1590
1749981528.584341,2040
1749981528.5844188,2275
1749981528.584497,2242
1749981528.5845754,1994
1749981528.5847259,1648
1749981528.5848103,1317
1749981528.5849004,1057
1749981528.5965855,935
1749981528.5966794,1083
1749981528.5967498,1497
1749981528.596821,1965
1749981528.5968888,2244
1749981528.5969574,2260
1749981528.5970266,2042
1749981528.5970924,1702
1749981528.5971582,1357
1749981528.597226,1082
1749981528.597293,930
1749981528.5973618,1036
1749981528.5974293,1420
1749981528.597497,1900
1749981528.597563,2216
1749981528.597631,2276
1749981528.5976982,2091
1749981528.5977666,1769
1749981528.5978334,1419
1749981528.5978997,1133
1749981528.597967,953
1749981528.5980334,1010
1749981528.598096,1353
1749981528.5981567,1835
1749981528.5982358,2187
1749981528.5983171,2290
1749981528.6064162,2141
1749981528.6123564,1833
1749981528.6124594,1477
1749981528.6125417,1172
1749981528.6126199,962
1749981528.6126971,971
1749981528.6127744,1275
1749981528.6128519,1758
1749981528.6129293,2147
1749981528.613006,2290
1749981528.613083,2173
1749981528.6131597,1883
1749981528.613236,1531
1749981528.6133132,1221
1749981528.613394,992
1749981528.6134703,955
1749981528.6135473,1212
1749981528.613624,1687
1749981528.613699,2115
1749981528.613776,2307
1749981528.613853,2232
1749981528.6139293,1961
1749981528.6140056,1607
1749981528.6140816,1282
1749981528.6141589,1031
1749981528.614235,945
1749981528.6143115,1147
1749981528.6143878,1595
1749981528.6144679,2046
1749981528.6145444,2280
1749981528.614621,2248
1749981528.6146972,1999
1749981528.6147735,1653
1749981528.6148496,1324
1749981528.6149442,1069
1749981528.6150694,957
1749981528.6151428,1115
1749981528.6152203,1535
1749981528.6152985,2004
1749981528.6153786,2281
1749981528.6154568,2295
1749981528.6155362,2075
1749981528.6156158,1734
1749981528.615695,1388
1749981528.6157746,1114
1749981528.615854,963
1749981528.6159317,1070
1749981528.6160116,1453
1749981528.6160908,1933
1749981528.6161702,2252
1749981528.616242,2315
1749981528.6163092,2130
1749981528.6163867,1803
1749981528.6164827,1451
1749981528.6165671,1166
1749981528.616651,991
1749981528.6167355,1052
1749981528.6168194,1397
1749981528.6169033,1878
1749981528.616987,2230
1749981528.6170714,2334
1749981528.6171556,2183
1749981528.61724,1874
1749981528.6173244,1517
1749981528.6174083,1217
1749981528.6174924,1014
1749981528.617579,1026
1749981528.6176686,1325
1749981528.6177487,1799
1749981528.617831,2184
1749981528.617915,2332
1749981528.618152,2223
1749981528.618761,1934
1749981528.6196048,1576
1749981528.619688,1264
1749981528.6198645,1044
1749981528.6199715,1012
1749981528.6200893,1257
1749981528.6207304,1705
1749981528.6208422,2111
1749981528.6209624,2307
1749981528.6210675,2250
1749981528.621172,1985
1749981528.6212766,1619
1749981528.621821,1282
1749981528.6219301,1042
1749981528.622035,981
1749981528.6221402,1191
1749981528.622255,1618
1749981528.623428,2036
1749981528.6235359,2258
1749981528.6236553,2238
1749981528.6237595,2004
1749981528.6238625,1652
1749981528.6239662,1305
1749981528.6240802,1045
1749981528.6241825,949
1749981528.6242852,1132
1749981528.6244516,1564
1749981528.6335647,2025
1749981528.6336565,2288
1749981528.633739,2296
1749981528.63382,2078
1749981528.6339014,1741
1749981528.633982,1390
1749981528.6340625,1106
1749981528.6341732,948
1749981528.634253,1054
1749981528.6343334,1442
1749981528.634415,1922
1749981528.634495,2238
1749981528.6345918,2297
1749981528.6346724,2112
1749981528.6347532,1789
1749981528.6348333,1438
1749981528.6349206,1149
1749981528.635492,965
1749981528.635576,1014
1749981528.635657,1345
1749981528.6357386,1814
1749981528.6358202,2162
1749981528.6363938,2270
1749981528.636477,2126
1749981528.6365583,1817
1749981528.6366396,1454
1749981528.6367202,1148
1749981528.6372828,947
1749981528.6373665,972
1749981528.6374476,1287
1749981528.6375284,1772
1749981528.6376092,2156
1749981528.638097,2295
1749981528.638174,2174
1749981528.6382596,1882
1749981528.638334,1528
1749981528.638407,1219
1749981528.638481,994
1749981528.6385546,960
1749981528.6386282,1217
1749981528.6387017,1689
1749981528.6387753,2111
1749981528.638849,2302
1749981528.638922,2228
1749981528.6389937,1959
1749981528.6390674,1607
1749981528.6391404,1282
1749981528.6392138,1033
1749981528.639287,952
1749981528.6393592,1162
1749981528.6394324,1619
1749981528.6395059,2073
1749981528.6395793,2306
1749981528.639674,2272
1749981528.6397488,2026
1749981528.6398244,1682
1749981528.6398983,1349
1749981528.6399727,1084
1749981528.6400456,964
1749981528.6401186,1126
1749981528.642494,1559
1749981528.642668,2035
1749981528.642741,2308
1749981528.642813,2310
1749981528.6428845,2084
1749981528.6429563,1750
1749981528.6430264,1418
1749981528.6430974,1148
1749981528.6431673,987
1749981528.6432374,1074
1749981528.643308,1439
1749981528.6433783,1909
1749981528.6519544,2224
1749981528.6703198,2286
1749981528.6705134,2104
1749981528.6706855,1781
1749981528.6813862,1432
1749981528.6815062,1147
1749981528.6815906,971
1749981528.6816692,1043
1749981528.681747,1407
1749981528.6818242,1904
1749981528.6819015,2252
1749981528.6819785,2333
1749981528.6820562,2161
1749981528.682133,1849
1749981528.6822104,1507
1749981528.6822886,1218
1749981528.6823664,1008
1749981528.682444,1008
1749981528.6825216,1307
1749981528.6825988,1795
1749981528.682676,2188
1749981528.7073615,2326
1749981528.7088974,2199
1749981528.7089918,1908
1749981528.7153208,1568
1749981528.717498,1269
1749981528.7176874,1039
1749981528.7178564,990
1749981528.7180235,1239
1749981528.7186453,1716
1749981528.7188268,2145
1749981528.7189932,2331
1749981528.719167,2243
1749981528.719334,1968
1749981528.7197757,1626
1749981528.7199638,1318
1749981528.7201302,1076
1749981528.7204368,986
1749981528.7206054,1183
1749981528.720803,1634
1749981528.7209704,2088
1749981528.7211363,2319
1749981528.7213182,2274
1749981528.7214837,2017
1749981528.721683,1674
1749981528.721851,1353
1749981528.7220168,1100
1749981528.722322,980
1749981528.7224908,1131
1749981528.7228198,1552
1749981528.7231276,2022
1749981528.7235548,2292
1749981528.723717,2294
1749981528.723867,2069
1749981528.7239943,1736
1749981528.7241087,1402
1749981528.724304,1129
1749981528.7244313,972
1749981528.7245452,1078
1749981528.7246664,1472
1749981528.7247925,1960
1749981528.724917,2273
1749981528.725031,2318
1749981528.7251444,2123
1749981528.7252707,1804
1749981528.7253847,1468
1749981528.7254984,1189
1749981528.7256126,1002
1749981528.7257507,1044
1749981528.7258525,1375
1749981528.7259545,1849
1749981528.7260573,2195
1749981528.7262704,2291
1749981528.7263732,2133
1749981528.7264762,1822
1749981528.7265885,1471
1749981528.7266912,1177
1749981528.7267933,977
1749981528.7268949,995
1749981528.7269912,1306
1749981528.7270663,1792
1749981528.7271407,2177
1749981528.7272148,2312
1749981528.7272892,2187
1749981528.7273636,1894
1749981528.7274392,1543
1749981528.7275143,1238
1749981528.7275891,1014
1749981528.7276638,978
1749981528.727738,1230
1749981528.7486193,1695
1749981528.7652617,2110
1749981528.784422,2295
1749981528.789815,2217
1749981528.7949512,1947
1749981528.7989116,1595
1749981528.8008187,1275
1749981528.8009148,1033
1749981528.8010063,956
1749981528.8010972,1161
1749981528.8011885,1601
1749981528.8012807,2038
1749981528.8013747,2265
1749981528.801474,2234
1749981528.8015764,1993
1749981528.8016672,1652
1749981528.8017583,1321
1749981528.8018503,1062
1749981528.801942,949
1749981528.8020337,1117
1749981528.8021262,1550
1749981528.8022,2023
1749981528.8022764,2290
1749981528.8023748,2284
1749981528.8024683,2052
1749981528.8025625,1716
1749981528.8026543,1386
1749981528.8027434,1118
1749981528.8028326,961
1749981528.8029225,1064
1749981528.8030121,1458
1749981528.8031027,1955
1749981528.8031943,2278
1749981528.8032904,2326
1749981528.8033805,2124
1749981528.8034687,1797
1749981528.8035564,1457
1749981528.8036335,1173
1749981528.8037212,981
1749981528.8038096,1025
1749981528.8038971,1370
1749981528.8039849,1864
1749981528.8040726,2222
1749981528.8041606,2315
1749981528.804241,2149
1749981528.804317,1838
1749981528.8049676,1494
1749981528.8272378,1199
1749981528.8273218,986
1749981528.8274,989
1749981528.8274765,1298
1749981528.8311057,1796
1749981528.8311887,2191
1749981528.8312624,2325
1749981528.8313346,2193
1749981528.8314066,1900
1749981528.8314786,1557
1749981528.8315682,1252
1749981528.8316422,1013
1749981528.8317137,958
1749981528.8317854,1206
1749981528.8318577,1682
1749981528.8319292,2108
1749981528.8320005,2288
1749981528.832072,2196
1749981528.8321433,1916
1749981528.832215,1571
1749981528.832287,1265
1749981528.8323584,1028
1749981528.83243,944
1749981528.8325012,1135
1749981528.8325725,1566
1749981528.8326435,2001
1749981528.8327203,2230
1749981528.8327918,2199
1749981528.8328617,1956
1749981528.8329318,1611
1749981528.8330023,1281
1749981528.8330717,1031
1749981528.8331416,929
1749981528.8332112,1101
1749981528.8332808,1528
1749981528.8333504,1990
1749981528.83342,2253
1749981528.8334901,2253
1749981528.8335595,2030
1749981528.8336294,1697
1749981528.8336987,1364
1749981528.8337688,1096
1749981528.8338387,947
1749981528.8339083,1057
1749981528.833978,1448
1749981528.8340473,1930
1749981528.8341167,2241
1749981528.8341775,2287
1749981528.8342414,2094
1749981528.8343112,1775
1749981528.834372,1435
1749981528.8344402,1148
1749981528.83451,957
1749981528.8345795,1013
1749981528.834649,1375
1749981528.834725,1883
1749981528.8347948,2242
1749981528.8348649,2327
1749981528.835055,2153
1749981528.8351288,1843
1749981528.835201,1505
1749981528.8355467,1216
1749981528.835941,999
1749981528.8360143,990
1749981528.8360853,1283
1749981528.8361557,1770
1749981528.836224,2163
1749981528.8362837,2301
1749981528.8363512,2174
1749981528.8364222,1880
1749981528.8364925,1535
1749981528.8365626,1233
1749981528.8366327,1005
1749981528.836707,965
1749981528.8367777,1223
1749981528.8368487,1700
1749981528.836919,2124
1749981528.83699,2305
1749981528.837059,2216
1749981528.83713,1938
1749981528.8372004,1590
1749981528.8372703,1277
1749981528.8373406,1039
1749981528.837411,961
1749981528.8374803,1169
1749981528.8375504,1621
1749981528.8412116,2070
1749981528.8547344,2297
1749981528.8548214,2255
1749981528.8549232,2004
1749981528.855003,1662
1749981528.8550823,1337
1749981528.8551626,1077
1749981528.8552415,955
1749981528.8553195,1115
1749981528.855401,1549
1749981528.855481,2028
1749981528.855559,2298
1749981528.8556376,2292
1749981528.8557165,2061
1749981528.8586476,1730
1749981528.8587642,1402
1749981528.8994634,1129
1749981528.9105592,967
1749981528.910643,1074
1749981528.9107218,1482
1749981528.9107995,1988
1749981528.910877,2302
1749981528.9109538,2331
1749981528.911031,2118
1749981528.9111078,1796
1749981528.9111845,1471
1749981528.9112608,1197
1749981528.9113376,1001
1749981528.9114206,1034
1749981528.9114974,1371
1749981528.911584,1865
1749981528.9116614,2226
1749981528.911738,2320
1749981528.9118142,2154
1749981528.9118905,1844
1749981528.9119668,1505
1749981528.9120436,1221
1749981528.9121194,1017
1749981528.9121954,1019
1749981528.912257,1310
1749981528.9123287,1780
1749981528.912405,2155
1749981528.9124808,2287
1749981528.9125566,2165
1749981528.9126325,1879
1749981528.9127088,1534
1749981528.9127843,1231
1749981528.9128602,1007
1749981528.912936,979
1749981528.9130125,1247
1749981528.9130883,1726
1749981528.9131641,2139
1749981528.91324,2307
1749981528.9133172,2211
1749981528.9133928,1936
1749981528.9134688,1595
1749981528.9135447,1287
1749981528.9136217,1049
1749981528.9136977,966
1749981528.9137752,1161
1749981528.9138522,1595
1749981528.913927,2025
1749981528.9140007,2245
1749981528.9140766,2209
1749981528.9141486,1970
1749981528.9142203,1639
1749981528.9142962,1316
1749981528.9143715,1054
1749981528.9144473,930
1749981528.9145231,1091
1749981528.9145994,1526
1749981528.914675,1998
1749981528.9147508,2252
1749981528.9148262,2232
1749981528.9294543,2003
1749981528.9298577,1686
1749981528.9299378,1367
1749981528.9301305,1087
1749981528.9301977,914
1749981528.9302723,1039
1749981528.93035,1503
1749981528.9458792,2064
1749981528.9459937,2390
1749981528.9460983,2385
1749981528.9462016,2137
1749981528.9463046,1824
1749981528.9464068,1536
1749981528.9466107,1272
1749981528.9467146,1035
1749981528.9468355,1007
1749981528.9469383,1313
1749981528.947042,1819
1749981528.9471455,2205
1749981528.9472487,2307
1749981528.9473524,2133
1749981528.9474552,1819
1749981528.947558,1490
1749981528.9777284,1218
1749981528.9819698,1010
1749981528.982047,995
1749981528.9821188,1271
1749981528.9821987,1736
1749981528.9822698,2112
1749981528.9823413,2243
1749981528.9824138,2118
1749981528.9824924,1830
1749981528.9825635,1492
1749981528.982635,1198
1749981528.982706,982
1749981528.9827769,956
1749981528.9828482,1226
1749981528.98292,1709
1749981528.9829907,2125
1749981528.9830618,2287
1749981528.9831326,2181
1749981528.9832034,1904
1749981528.9832742,1573
1749981528.9833446,1280
1749981528.9834156,1046
1749981528.9834862,960
1749981528.9835575,1163
1749981528.9836283,1623
1749981528.983699,2078
1749981528.9837697,2299
1749981528.9838414,2241
1749981528.9839246,1984
1749981528.9839966,1657
1749981528.9840667,1351
1749981528.9841447,1095
1749981528.984215,958
1749981528.984276,1102
1749981528.984341,1533
1749981528.9844117,2017
1749981528.9844818,2288
1749981528.984552,2275
1749981528.9846225,2038
1749981528.9846928,1712
1749981528.9847634,1398
1749981528.984834,1133
1749981528.984925,966
1749981528.984996,1056
1749981528.9850664,1447
1749981528.985137,1945
1749981528.9852076,2262
1749981528.9852781,2298
1749981528.9853485,2090
1749981528.985419,1771
1749981528.9854898,1446
1749981528.9855607,1173
1749981528.9856312,979
1749981528.9857004,1018
1749981528.985769,1365
1749981528.9858384,1867
1749981528.9859076,2226
1749981529.0503435,2307
1749981529.0507162,2127
1749981529.1125834,1815
1749981529.112933,1484
1749981529.113269,1203
1749981529.1686807,988
1749981529.1707766,978
1749981529.178283,1276
1749981529.2073915,1773
1749981529.2340176,2172
1749981529.234151,2301
1749981529.2343128,2159
1749981529.2344506,1865
1749981529.2345877,1538
1749981529.2347455,1257
1749981529.2348993,1031
1749981529.2350397,975
1749981529.2355552,1219
1749981529.235678,1698
1749981529.2358086,2126
1749981529.2359307,2300
1749981529.2365143,2197
1749981529.2366369,1917
1749981529.2367582,1588
1749981529.236913,1295
1749981529.237035,1055
1749981529.2371564,955
1749981529.2373023,1148
1749981529.2374299,1605
1749981529.2375498,2064
1749981529.2376704,2288
1749981529.2378263,2231
1749981529.2379234,1974
1749981529.2380202,1648
1749981529.2381082,1347
1749981529.2382,1094
1749981529.2383063,956
1749981529.2384067,1093
1749981529.238499,1517
1749981529.2385933,1996
1749981529.2386978,2264
1749981529.238799,2250
1749981529.238899,2015
1749981529.238997,1691
1749981529.2390857,1380
1749981529.2391784,1124
1749981529.239272,965
1749981529.239372,1059
1749981529.2394693,1446
1749981529.2395656,1934
1749981529.2396622,2242
1749981529.239757,2274
1749981529.2398572,2068
1749981529.239954,1752
1749981529.2400515,1429
1749981529.2401466,1156
1749981529.2402337,962
1749981529.24033,998
1749981529.240426,1338
1749981529.240527,1829
1749981529.2406225,2181
1749981529.2407193,2265
1749981529.24082,2097
1749981529.2409165,1796
1749981529.2410126,1470
1749981529.241113,1190
1749981529.2412128,979
1749981529.2413132,974
1749981529.2414117,1274
1749981529.2415087,1766
1749981529.2569287,2154
1749981529.2570074,2279
1749981529.2570753,2141
1749981529.2571423,1853
1749981529.2572086,1525
1749981529.2574835,1238
1749981529.2575517,1009
1749981529.2576184,955
1749981529.2576847,1202
1749981529.2577512,1681
1749981529.2578173,2106
1749981529.257883,2280
1749981529.2580204,2181
1749981529.2581224,1907
1749981529.2814846,1579
1749981529.281572,1286
1749981529.2816672,1047
1749981529.2817373,952
1749981529.2818072,1146
1749981529.2818742,1602
1749981529.2819443,2060
1749981529.2820125,2287
1749981529.2820778,2234
1749981529.2821379,1977
1749981529.2822034,1643
1749981529.282272,1333
1749981529.2823386,1081
1749981529.2824054,951
1749981529.2824721,1094
1749981529.2825403,1517
1749981529.282607,1991
1749981529.2826738,2257
1749981529.2827423,2246
1749981529.2828088,2013
1749981529.321589,1688
1749981529.323534,1376
1749981529.3472223,1119
1749981529.3472934,957
1749981529.3473597,1040
1749981529.3474255,1412
1749981529.3474905,1891
1749981529.3475564,2205
1749981529.3476214,2251
1749981529.3476863,2053
1749981529.3477514,1733
1749981529.3478165,1402
1749981529.3478866,1129
1749981529.3479514,948
1749981529.348016,1006
1749981529.3480835,1368
1749981529.3481467,1875
1749981529.3483121,2231
1749981529.3483865,2308
1749981529.3484526,2126
1749981529.3485186,1814
1749981529.3485832,1486
1749981529.3486483,1208
1749981529.3487132,996
1749981529.3487782,985
1749981529.3488433,1279
1749981529.348909,1774
1749981529.3489738,2174
1749981529.3490388,2312
1749981529.3491044,2180
1749981529.3491695,1891
1749981529.349234,1559
1749981529.3492992,1267
1749981529.349364,1031
1749981529.3494284,973
1749981529.3494935,1223
1749981529.3495586,1711
1749981529.349624,2148
1749981529.3496888,2326
1749981529.3497539,2223
1749981529.34982,1944
1749981529.3498838,1614
1749981529.3499494,1319
1749981529.3500147,1074
1749981529.3500786,971
1749981529.3501368,1163
1749981529.3502011,1625
1749981529.3502657,2093
1749981529.3503308,2320
1749981529.350396,2258
1749981529.3504612,1990
1749981529.350526,1657
1749981529.350591,1354
1749981529.3506563,1104
1749981529.3507214,965
1749981529.350787,1098
1749981529.3508515,1518
1749981529.3509169,2002
1749981529.350982,2280
1749981529.3510466,2271
1749981529.3511112,2034
1749981529.3511763,1708
1749981529.3512406,1400
1749981529.351306,1145
1749981529.351371,980
1749981529.3514364,1062
1749981529.3515031,1441
1749981529.3515728,1929
1749981529.3516376,2241
1749981529.351703,2275
1749981529.35178,2069
1749981529.3518443,1756
1749981529.3519092,1435
1749981529.3519733,1157
1749981529.352038,960
1749981529.3521779,1016
1749981529.3523753,1404
1749981529.352444,1949
1749981529.3525093,2319
1749981529.3529463,2377
1749981529.3530133,2172
1749981529.3530793,1863
1749981529.353193,1558
1749981529.354032,1289
1749981529.3617141,1052
1749981529.4059615,1004
1749981529.4281433,1282
1749981529.4345317,1789
1749981529.4360592,2206
1749981529.4361334,2343
1749981529.4361935,2199
1749981529.4362588,1904
1749981529.4363265,1582
1749981529.4363952,1298
1749981529.436464,1058
1749981529.436532,985
1749981529.4365997,1228
1749981529.4366686,1721
1749981529.4367378,2165
1749981529.436807,2342
1749981529.4368737,2233
1749981529.4369402,1950
1749981529.4370086,1625
1749981529.4370756,1338
1749981529.4371452,1096
1749981529.4372141,994
1749981529.4372804,1191
1749981529.437348,1661
1749981529.4374158,2129
1749981529.4374845,2346
1749981529.437552,2272
1749981529.437618,2005
1749981529.437685,1685
1749981529.4377518,1394
1749981529.4378192,1139
1749981529.437886,988
1749981529.437954,1119
1749981529.4380212,1555
1749981529.4380836,2054
1749981529.4381442,2326
1749981529.4382095,2300
1749981529.4388278,2053
1749981529.4389057,1738
1749981529.4389765,1441
1749981529.439042,1176
1749981529.4391086,987
1749981529.4391747,1070
1749981529.4392407,1493
1749981529.4393067,2037
1749981529.4393737,2365
1749981529.439442,2366
1749981529.4395082,2125
1749981529.4395742,1822
1749981529.4396403,1544
1749981529.439706,1282
1749981529.4397724,1041
1749981529.439838,1031
1749981529.4399033,1395
1749981529.439972,1968
1749981529.4400382,2368
1749981529.4401035,2417
1749981529.4401648,2186
1749981529.440225,1882
1749981529.440295,1612
1749981529.4403632,1356
1749981529.4404287,1090
1749981529.4404945,1019
1749981529.44056,1342
1749981529.4406252,1937
1749981529.4406908,2394
1749981529.4407563,2477
1749981529.4408216,2251
1749981529.4408877,1944
1749981529.440954,1683
1749981529.4410222,1439
1749981529.4410872,1153
1749981529.4411523,1002
1749981529.4412189,1235
1749981529.4412844,1806
1749981529.4413507,2322
1749981529.4414165,2484
1749981529.4414825,2304
1749981529.4415548,1992
1749981529.4416227,1717
1749981529.441689,1490
1749981529.4417539,1234
1749981529.441819,1044
1749981529.441885,1151
1749981529.4419498,1587
1749981529.4420185,2065
1749981529.4420812,2288
1749981529.44214,2207
1749981529.4422045,1938
1749981529.4422698,1637
1749981529.4423356,1370
1749981529.4424016,1125
1749981529.442467,975
1749981529.4425356,1122
1749981529.4426014,1590
1749981529.4426665,2105
1749981529.4427328,2349
1749981529.4427989,2268
1749981529.4428658,1992
1749981529.4429321,1698
1749981529.4429977,1446
1749981529.4430635,1199
1749981529.4431295,991
1749981529.443196,1054
1749981529.4432626,1488
1749981529.4433286,2060
1749981529.4433963,2390
1749981529.4434617,2358
1749981529.443527,2089
1749981529.443594,1797
1749981529.4436593,1558
1749981529.4437244,1317
1749981529.4437892,1061
1749981529.4438546,1021
1749981529.4439204,1373
1749981529.4439864,1954
1749981529.4440527,2362
1749981529.449483,2406
1749981529.449611,2161
1749981529.449686,1848
1749981529.4497533,1586
1749981529.44982,1359
1749981529.4737306,1114
1749981529.4999464,1013
1749981529.5415845,1239
1749981529.592387,1724
1749981529.6351733,2140
1749981529.6352603,2274
1749981529.665801,2121
1749981529.6784272,1823
1749981529.7128448,1513
1749981529.712973,1253
1749981529.7683957,1035
1749981529.7796748,967
1749981529.7917857,1193
1749981529.7922096,1658
1749981529.792578,2074
1749981529.7937517,2231
1749981529.796348,2113
1749981529.7965777,1831
1749981529.7966533,1516
1749981529.7967288,1244
1749981529.8052435,1019
1749981529.8069708,929
1749981529.808167,1136
1749981529.808256,1614
1749981529.8083296,2084
1749981529.8084016,2287
1749981529.808474,2196
1749981529.8085456,1929
1749981529.8086174,1632
1749981529.8086898,1360
1749981529.8087618,1099
1749981529.8088348,928
1749981529.8089075,1067
1749981529.808979,1553
1749981529.8090563,2101
1749981529.8091326,2372
1749981529.8092082,2300
1749981529.8092828,2024
1749981529.809358,1734
1749981529.8094327,1481
1749981529.809767,1219
1749981529.809879,980
1749981529.8105133,1014
1749981529.810597,1434
1749981529.8106785,2014
1749981529.81076,2365
1749981529.8108408,2358
1749981529.8109207,2103
1749981529.811001,1807
1749981529.8110814,1557
1749981529.811161,1314
1749981529.811288,1064
1749981529.8113725,1014
1749981529.8114529,1326
1749981529.8115351,1855
1749981529.8116279,2239
1749981529.81171,2303
1749981529.8117912,2098
1749981529.8118813,1800
1749981529.8119621,1514
1749981529.8120425,1254
1749981529.812122,1014
1749981529.8122027,980
1749981529.8122852,1313
1749981529.8123653,1887
1749981529.8124456,2319
1749981529.812526,2400
1749981529.8126056,2183
1749981529.8126867,1875
1749981529.8127666,1611
1749981529.8128467,1389
1749981529.812927,1145
1749981529.8130012,1010
1749981529.814049,1201
1749981529.8142655,1694
1749981529.8143988,2160
1749981529.8144813,2329
1749981529.8145628,2186
1749981529.8146448,1892
1749981529.81474,1601
1749981529.8148222,1349
1749981529.8266733,1097
1749981529.8278227,948
1749981529.8281906,1125
1749981529.8835413,1630
1749981529.8836281,2148
1749981529.8837068,2365
1749981529.8837855,2246
1749981529.8838632,1952
1749981529.8839417,1657
1749981529.8840191,1409
1749981529.8840976,1159
1749981529.8841743,965
1749981529.8844085,1062
1749981529.8844872,1514
1749981529.8845646,2056
1749981529.884644,2340
1749981529.884722,2282
1749981529.8847992,2006
1749981529.8848767,1702
1749981529.8849728,1449
1749981529.8850503,1212
1749981529.885133,999
1749981529.8852103,1010
1749981529.8852832,1349
1749981529.885361,1840
1749981529.8854427,2163
1749981529.8855212,2195
1749981529.8856003,1984
1749981529.885684,1682
1749981529.8857632,1390
1749981529.8858414,1134
1749981529.8859215,933
1749981529.886,968
1749981529.8860795,1342
1749981529.8861592,1885
1749981529.8862429,2246
1749981529.8863275,2281
1749981529.8864071,2059
1749981529.8864844,1760
1749981529.8865707,1484
1749981529.8866463,1234
1749981529.8867252,991
1749981529.8868024,945
1749981529.8868814,1272
1749981529.886962,1857
1749981529.8870394,2313
1749981529.8871171,2412
1749981529.8871942,2202
1749981529.8872714,1894
1749981529.8873515,1628
1749981529.8874297,1399
1749981529.8875065,1135
1749981529.8875837,969
1749981529.8876607,1127
1749981529.8877387,1604
1749981529.887815,2082
1749981529.8878918,2281
1749981529.8879685,2163
1749981529.8880463,1870
1749981529.888123,1562
1749981529.8882017,1302
1749981529.9125576,1065
1749981529.9126713,931
1749981529.912777,1091
1749981529.9128819,1550
1749981529.9129944,2030
1749981529.9130986,2249
1749981529.9132013,2165
1749981529.91331,1892
1749981529.9134152,1588
1749981529.9135315,1324
1749981529.91373,1085
1749981529.913838,934
1749981529.9139411,1076
1749981529.9140458,1545
1749981529.9141834,2070
1749981529.9145033,2326
1749981529.9146101,2254
1749981529.9147167,1987
1749981529.914821,1704
1749981529.9263668,1447
1749981529.9332857,1170
1749981529.9333715,916
1749981529.9334507,942
1749981529.9335287,1372
1749981529.9344225,1970
1749981529.934532,2330
1749981529.93467,2312
1749981529.9347596,2039
1749981529.9348395,1741
1749981529.9349287,1505
1749981529.9350028,1282
1749981529.9350731,1040
1749981529.994744,988
1749981529.9948294,1300
1749981530.0350478,1842
1749981530.0616946,2241
1749981530.0621705,2309
1749981530.0622807,2097
1749981530.0681863,1796
1749981530.081423,1520
1749981530.108192,1271
1749981530.1397674,1025
1749981530.1398883,957
1749981530.140297,1246
1749981530.1404076,1791
1749981530.1405163,2225
1749981530.1655152,2328
1749981530.1662266,2133
1749981530.166482,1830
1749981530.1665556,1548
1749981530.1666322,1300
1749981530.1667047,1048
1749981530.166777,941
1749981530.1668487,1190
1749981530.198118,1740
1749981530.2604082,2231
1749981530.2921293,2387
1749981530.3375473,2223
1749981530.3379138,1926
1749981530.3382604,1650
1749981530.338593,1413
1749981530.3389225,1151
1749981530.3392525,968
1749981530.3395844,1099
1749981530.3399165,1568
1749981530.3402462,2072
1749981530.3405788,2299
1749981530.3409266,2205
1749981530.3412526,1932
1749981530.341607,1643
1749981530.3419504,1390
1749981530.342277,1138
1749981530.3426151,953
1749981530.3429415,1062
1749981530.3438063,1517
1749981530.349606,2050
1749981530.349701,2322
1749981530.371678,2257
1749981530.4088755,1984
1749981530.4141343,1688
1749981530.4142482,1435
1749981530.4143589,1189
1749981530.4144676,975
1749981530.4145763,1018
1749981530.4147048,1431
1749981530.4148154,1994
1749981530.4149337,2334
1749981530.4150417,2320
1749981530.4151628,2057
1749981530.4152715,1754
1749981530.4224484,1500
1749981530.422525,1260
1749981530.424851,1015
1749981530.4254296,976
1749981530.4268005,1309
1749981530.42719,1866
1749981530.4273307,2266
1749981530.427661,2320
1749981530.4277732,2092
1749981530.4280024,1786
1749981530.428126,1519
1749981530.4282546,1282
1749981530.4651253,1035
1749981530.480611,949
1749981530.481054,1213
1749981530.4811292,1742
1749981530.4812038,2182
1749981530.4812775,2303
1749981530.4816346,2128
1749981530.4817114,1833
1749981530.481805,1552
1749981530.4818926,1306
1749981530.4819655,1057
1749981530.4820383,942
1749981530.4822786,1164
1749981530.4823718,1678
1749981530.4824438,2149
1749981530.482516,2310
1749981530.4825876,2162
1749981530.4826593,1873
1749981530.4827304,1589
1749981530.4828029,1341
1749981530.4828749,1088
1749981530.4829476,938
1749981530.4830203,1121
1749981530.4830918,1638
1749981530.4831629,2166
1749981530.4832346,2384
1749981530.4833057,2264
1749981530.4833775,1975
1749981530.48345,1691
1749981530.4835212,1449
1749981530.4851098,1192
1749981530.4851832,981
1749981530.4852552,1057
1749981530.4853265,1495
1749981530.4854178,2036
1749981530.4854896,2332
1749981530.4855611,2291
1749981530.4856322,2030
1749981530.4857035,1731
1749981530.4857755,1466
1749981530.4858603,1209
1749981530.4859326,986
1749981530.4860036,1015
1749981530.486075,1399
1749981530.4861403,1933
1749981530.4862208,2262
1749981530.4863164,2262
1749981530.4863877,2018
1749981530.4864595,1716
1749981530.4865303,1445
1749981530.4866018,1197
1749981530.486673,971
1749981530.486793,972
1749981530.4868636,1339
1749981530.4869342,1910
1749981530.4870055,2303
1749981530.487076,2345
1749981530.487147,2109
1749981530.4872181,1804
1749981530.4872894,1538
1749981530.4873602,1295
1749981530.4874308,1038
1749981530.4875016,953
1749981530.487571,1239
1749981530.4876418,1803
1749981530.4953194,2263
1749981530.4956293,2376
1749981530.4957035,2177
1749981530.495775,1868
1749981530.4958458,1592
1749981530.4959166,1355
1749981530.4959872,1097
1749981530.4960628,955
1749981530.4961336,1149
1749981530.4962058,1655
1749981530.496266,2135
1749981530.4963324,2311
1749981530.4964035,2168
1749981530.496474,1871
1749981530.4965456,1574
1749981530.4966166,1319
1749981530.4966877,1071
1749981530.4967587,926
1749981530.4968293,1101
1749981530.4968998,1600
1749981530.496971,2116
1749981530.4970424,2341
1749981530.497113,2236
1749981530.4971848,1948
1749981530.497259,1649
1749981530.4973302,1396
1749981530.4974027,1151
1749981530.497474,962
1749981530.497546,1043
1749981530.497617,1459
1749981530.4976883,1970
1749981530.4977589,2255
1749981530.49783,2226
1749981530.497901,1978
1749981530.4979718,1678
1749981530.4980493,1402
1749981530.4981222,1146
1749981530.4981878,946
1749981530.4982674,1010
1749981530.4983404,1421
1749981530.4984126,1965
1749981530.4984832,2289
1749981530.4985542,2283
1749981530.4986253,2039
1749981530.4987004,1743
1749981530.4987717,1476
1749981530.4988427,1222
1749981530.4989135,982
1749981530.4989848,969
1749981530.4990554,1329
1749981530.4991264,1898
1749981530.4991977,2292
1749981530.499268,2336
1749981530.4993384,2109
1749981530.4994092,1816
1749981530.4994807,1553
1749981530.4995518,1298
1749981530.4996219,1022
1749981530.4996924,930
1749981530.4997633,1232
1749981530.4998336,1819
1749981530.4999044,2284
1749981530.4999752,2379
1749981530.5000463,2161
1749981530.5001175,1858
1749981530.5001886,1604
1749981530.5002491,1374
1749981530.5003164,1097
1749981530.5003884,934
1749981530.5004594,1139
1749981530.50053,1686
1749981530.500605,2197
1749981530.5006754,2367
1749981530.5007455,2198
1749981530.5008156,1896
1749981530.5008864,1631
1749981530.500957,1405
1749981530.501027,1143
1749981530.5010972,947
1749981530.5011678,1080
1749981530.501238,1574
1749981530.5013077,2106
1749981530.5013795,2333
1749981530.5014508,2216
1749981530.5015216,1924
1749981530.5108337,1642
1749981530.5369883,1405
1749981530.551352,1150
1749981530.6430418,945
1749981530.6904683,1046
1749981530.6905503,1527
1749981530.6907225,2100
1749981530.6907966,2386
1749981530.6908698,2301
1749981530.6913812,2002
1749981530.6914532,1707
1749981530.6915236,1480
1749981530.6916103,1255
1749981530.691682,1023
1749981530.6917531,1009
1749981530.691825,1350
1749981530.6919267,1872
1749981530.7019644,2215
1749981530.7020478,2234
1749981530.7021244,1996
1749981530.7021956,1685
1749981530.7022696,1404
1749981530.7023435,1157
1749981530.7024164,942
1749981530.7024875,949
1749981530.702562,1305
1749981530.7026386,1855
1749981530.702713,2235
1749981530.702787,2279
1749981530.7028577,2053
1749981530.7029293,1745
1749981530.7030013,1467
1749981530.7032835,1222
1749981530.703541,985
1749981530.7036097,921
1749981530.703673,1204
1749981530.7037416,1741
1749981530.703805,2178
1749981530.7040057,2293
1749981530.720018,2113
1749981530.7202415,1816
1749981530.7204213,1533
1749981530.7206142,1281
1749981530.7208185,1023
1749981530.7210145,898
1749981530.7212071,1109
1749981530.7214038,1621
1749981530.7216277,2098
1749981530.7218275,2269
1749981530.7220187,2130
1749981530.7222147,1840
1749981530.7224123,1545
1749981530.7225902,1282
1749981530.722775,1019
1749981530.7229657,869
1749981530.7231548,1059
1749981530.7233496,1588
1749981530.7235374,2129
1749981530.7640226,2356
1749981530.7753084,2238
1749981530.7754533,1939
1749981530.7755883,1649
1749981530.7761705,1412
1749981530.776309,1164
1749981530.7764409,946
1749981530.7766023,989
1749981530.781098,1383
1749981530.8150067,1895
1749981530.8795996,2192
1749981530.8800497,2168
1749981530.880152,1917
1749981530.884176,1613
1749981530.8842535,1336
1749981530.8843281,1075
1749981530.8845296,869
1749981530.884681,938
1749981530.8848276,1376
1749981530.8849897,1952
1749981530.8853521,2287
1749981530.8855238,2260
1749981530.8929532,1992
1749981530.8930771,1697
1749981530.893187,1452
1749981530.8933709,1213
1749981530.8934815,965
1749981530.8935926,936
1749981530.893701,1306
1749981530.8938243,1912
1749981530.893933,2342
1749981530.8940437,2388
1749981530.8942401,2135
1749981530.894349,1818
1749981530.8944566,1557
1749981530.8945649,1324
1749981530.8946872,1058
1749981530.8947968,934
1749981530.8949182,1168
1749981530.895026,1692
1749981530.895201,2144
1749981530.8953128,2279
1749981530.8954153,2107
1749981530.8955185,1807
1749981530.8956206,1520
1749981530.895723,1270
1749981530.8958254,1021
1749981530.8959284,903
1749981530.8960304,1118
1749981530.8961332,1629
1749981530.8963192,2103
1749981530.8980935,2272
1749981530.8981786,2126
1749981530.8982625,1827
1749981530.8983526,1530
1749981530.8984268,1276
1749981530.8985107,1027
1749981530.898592,884
1749981530.8986685,1069
1749981530.8987415,1585
1749981530.9196126,2113
1749981530.9197698,2329
1749981530.919913,2201
1749981530.9200552,1902
1749981530.9202785,1616
1749981530.920435,1377
1749981530.9206655,1120
1749981530.9208424,903
1749981530.9209847,983
1749981530.921807,1445
1749981530.9219327,2015
1749981530.9220772,2319
1749981530.9222512,2260
1749981530.9223955,1981
1749981530.9225392,1689
1749981530.9226973,1444
1749981530.9228415,1190
1749981530.9229836,940
1749981530.9231548,936
1749981530.923298,1314
1749981530.92344,1871
1749981530.9235992,2224
1749981530.923743,2228
1749981530.9238844,1978
1749981530.9240394,1680
1749981530.924181,1422
1749981530.9242468,1179
1749981530.9243164,938
1749981530.9243903,913
1749981530.9247255,1264
1749981530.9249237,1832
1749981530.9251056,2229
1749981530.9252732,2271
1749981530.9254496,2035
1749981530.9255948,1734
1749981530.9258456,1475
1749981530.92598,1232
1749981530.9261117,971
1749981530.926256,888
1749981530.9263985,1193
1749981530.926539,1780
1749981530.9266987,2243
1749981530.9268413,2337
1749981530.927044,2124
1749981530.9271898,1828
1749981530.9273882,1576
1749981530.9275415,1340
1749981530.9277217,1058
1749981530.927884,897
1749981530.9280324,1116
1749981530.9281828,1679
1749981530.9386117,2200
1749981531.0008848,2367
1749981531.070383,2190
1749981531.0864975,1880
1749981531.086588,1610
1749981531.0866568,1391
1749981531.0867243,1140
1749981531.0867903,934
1749981531.0868576,1014
1749981531.086924,1432
1749981531.0869899,1921
1749981531.087056,2172
1749981531.0871222,2114
1749981531.0871887,1846
1749981531.087265,1530
1749981531.0873394,1252
1749981531.0874162,1017
1749981531.0874956,875
1749981531.08757,1006
1749981531.087644,1436
1749981531.0877185,1927
1749981531.0940304,2183
1749981531.1233382,2138
1749981531.1234517,1886
1749981531.1235561,1584
1749981531.1246812,1308
1749981531.1247911,1060
1749981531.1249173,870
1749981531.125021,939
1749981531.1251247,1350
1749981531.1252344,1892
1749981531.1253376,2218
1749981531.1254404,2215
1749981531.125543,1975
1749981531.132385,1684
1749981531.1324608,1419
1749981531.1325343,1161
1749981531.1326056,916
1749981531.1326778,908
1749981531.1327493,1290
1749981531.1328213,1888
1749981531.1328928,2301
1749981531.1334882,2343
1749981531.1336064,2104
1749981531.1336787,1803
1749981531.1337497,1545
1749981531.133822,1298
1749981531.133895,1016
1749981531.1339664,888
1749981531.13404,1131
1749981531.1341166,1668
1749981531.1341784,2126
1749981531.1342409,2258
1749981531.1343129,2087
1749981531.134385,1794
1749981531.1344562,1515
1749981531.1345272,1264
1749981531.134597,1004
1749981531.1346676,880
1749981531.1347413,1106
1749981531.134822,1635
1749981531.1349318,2117
1749981531.1350033,2278
1749981531.1350844,2125
1749981531.135154,1836
1749981531.1352246,1557
1749981531.1352954,1309
1749981531.1353655,1050
1749981531.1354678,892
1749981531.1355455,1074
1749981531.1356163,1606
1749981531.1356864,2155
1749981531.1357565,2384
1749981531.1358266,2261
1749981531.1358962,1959
1749981531.1359665,1671
1749981531.1360369,1440
1749981531.1361067,1198
1749981531.1361768,982
1749981531.136239,1022
1749981531.1363091,1409
1749981531.1363788,1918
1749981531.136449,2217
1749981531.136519,2204
1749981531.1365883,1964
1749981531.1366582,1667
1749981531.1367276,1394
1749981531.1367972,1142
1749981531.1368675,942
1749981531.1369371,999
1749981531.1370165,1404
1749981531.1370864,1945
1749981531.1371562,2268
1749981531.1372256,2258
1749981531.1372952,2007
1749981531.1373656,1704
1749981531.1374352,1431
1749981531.1375053,1177
1749981531.1375754,942
1749981531.1376448,943
1749981531.1377144,1328
1749981531.137784,1926
1749981531.1378534,2338
1749981531.1379228,2376
1749981531.1379921,2128
1749981531.1380615,1820
1749981531.1381269,1567
1749981531.138185,1340
1749981531.1382773,1076
1749981531.1383479,951
1749981531.1384175,1176
1749981531.1384869,1692
1749981531.1385562,2142
1749981531.1386259,2282
1749981531.1386955,2116
1749981531.138765,1822
1749981531.1388347,1536
1749981531.138905,1282
1749981531.138978,1030
1749981531.139048,921
1749981531.1391184,1161
1749981531.139188,1704
1749981531.1392577,2197
1749981531.1393278,2363
1749981531.1393974,2205
1749981531.1394675,1903
1749981531.139537,1612
1749981531.1396067,1361
1749981531.1396759,1099
1749981531.1397452,932
1749981531.139815,1094
1749981531.1398847,1603
1749981531.151755,2139
1749981531.1518335,2374
1749981531.1519063,2265
1749981531.1519783,1975
1749981531.152051,1684
1749981531.1521237,1439
1749981531.152196,1188
1749981531.1522572,976
1749981531.1523237,1033
1749981531.1523964,1440
1749981531.1524694,1959
1749981531.1525474,2256
1749981531.1526191,2234
1749981531.1526914,1983
1749981531.1527736,1676
1749981531.1528468,1396
1749981531.1529186,1140
1749981531.1529891,942
1749981531.1530614,1004
1749981531.1531317,1409
1749981531.153204,1947
1749981531.153276,2273
1749981531.153352,2271
1749981531.153427,2029
1749981531.1535099,1725
1749981531.1535995,1445
1749981531.153675,1181
1749981531.1537476,943
1749981531.1538203,938
1749981531.1538904,1309
1749981531.1539621,1887
1749981531.1540334,2287
1749981531.154104,2331
1749981531.1542535,2100
1749981531.154351,1801
1749981531.1544228,1537
1749981531.1544933,1284
1749981531.154564,1010
1749981531.1546342,913
1749981531.1547167,1206
1749981531.154795,1788
1749981531.1548698,2259
1749981531.1549811,2367
1749981531.1550562,2159
1749981531.1551306,1856
1749981531.215412,1592
1749981531.2679687,1351
1749981531.2684977,1067
1749981531.3494124,903
1749981531.3510606,1113
1749981531.3513916,1668
1749981531.3747523,2189
1749981531.3749409,2363
1749981531.3750489,2195
1749981531.3751912,1894
1749981531.3752966,1627
1749981531.3849063,1396
1749981531.385745,1126
1749981531.3858206,930
1749981531.3862455,1075
1749981531.386321,1595
1749981531.387095,2149
1749981531.3872023,2381
1749981531.3873067,2249
1749981531.38741,1941
1749981531.3875132,1656
1749981531.387617,1423
1749981531.387721,1169
1749981531.387824,947
1749981531.3879273,1015
1749981531.388031,1463
1749981531.3881345,2022
1749981531.3883483,2321
1749981531.388454,2262
1749981531.388557,1982
1749981531.3886757,1684
1749981531.3887768,1439
1749981531.3888521,1199
1749981531.3889267,975
1749981531.3890007,992
1749981531.3890755,1370
1749981531.3891492,1911
1749981531.3892236,2252
1749981531.3892977,2257
1749981531.389372,2015
1749981531.3894465,1718
1749981531.3895206,1454
1749981531.3895946,1207
1749981531.389668,972
1749981531.3897421,958
1749981531.3898158,1317
1749981531.3898897,1888
1749981531.389964,2284
1749981531.390038,2326
1749981531.3901112,2090
1749981531.3901808,1789
1749981531.39025,1530
1749981531.390319,1288
1749981531.3903883,1026
1749981531.3904574,943
1749981531.3905265,1249
1749981531.390596,1838
1749981531.390667,2305
1749981531.390736,2398
1749981531.3908057,2177
1749981531.390875,1877
1749981531.390948,1629
1749981531.415638,1400
1749981531.4159338,1115
1749981531.4160404,944
1749981531.4161444,1159
1749981531.416408,1733
1749981531.4165134,2269
1749981531.4166172,2438
1749981531.4167204,2248
1749981531.4168224,1929
1749981531.416925,1660
1749981531.4170268,1434
1749981531.4171293,1158
1749981531.41729,943
1749981531.4174054,1073
1749981531.4175115,1590
1749981531.4176142,2151
1749981531.417717,2388
1749981531.4178197,2259
1749981531.417923,1956
1749981531.4180262,1681
1749981531.418253,1454
1749981531.4505548,1194
1749981531.4759386,961
1749981531.4760227,1030
1749981531.4760997,1498
1749981531.4761758,2076
1749981531.476252,2371
1749981531.4763525,2289
1749981531.476428,1989
1749981531.4765034,1693
1749981531.4765778,1462
1749981531.476653,1225
1749981531.4767451,985
1749981531.5134315,987
1749981531.5431035,1374
1749981531.5624204,1941
1749981531.5627484,2296
1749981531.5691333,2292
1749981531.569257,2031
1749981531.5693722,1730
1749981531.5694838,1480
1749981531.5695968,1244
1749981531.5697112,1003
1749981531.5698252,973
1749981531.569944,1322
1749981531.5700524,1895
1749981531.5701475,2297
1749981531.5702267,2336
1749981531.5702996,2093
1749981531.5703723,1786
1749981531.5704446,1528
1749981531.572206,1293
1749981531.572295,1037
1749981531.5723772,949
1749981531.5724602,1237
1749981531.5728154,1806
1749981531.6222181,2264
1749981531.6238492,2369
1749981531.6329713,2166
1749981531.634147,1865
1749981531.6345408,1598
1749981531.6349447,1357
1749981531.6354098,1088
1749981531.6357806,946
1749981531.6361315,1168
1749981531.636506,1715
1749981531.636873,2221
1749981531.637726,2391
1749981531.654174,2228
1749981531.6543887,1923
1749981531.6545727,1639
1749981531.6546855,1402
1749981531.6547923,1150
1749981531.668158,972
1749981531.706467,1092
1749981531.7467344,1544
1749981531.809462,2044
1749981531.822326,2291
1749981531.8369408,2223
1749981531.848296,1954
1749981531.8484123,1646
1749981531.8485224,1376
1749981531.850032,1133
1749981531.8849328,969
1749981531.8862238,1073
1749981531.904479,1492
1749981531.9048243,1985
1749981531.9833944,2249
1749981531.9840379,2208
1749981531.9841244,1957
1749981531.984206,1655
1749981531.9981985,1375
1749981531.9983034,1114
1749981531.9983857,916
1749981531.9984665,1004
1749981531.9985473,1464
1749981531.998628,2060
1749981531.998708,2408
1749981531.9987888,2386
1749981531.9988701,2116
1749981531.9989507,1818
1749981531.9990308,1571
1749981531.9991107,1326
1749981531.999191,1061
1749981531.9992707,1000
1749981531.9993508,1325
1749981531.9994307,1895
1749981531.999511,2314
1749981531.9995909,2380
1749981531.999671,2152
1749981531.9997509,1842
1749981531.9998314,1570
1749981531.9999113,1330
1749981531.9999917,1076
1749981532.0001175,971
1749981532.0002072,1207
1749981532.0002778,1716
1749981532.0003583,2160
1749981532.0004387,2307
1749981532.0055482,2153
1749981532.0056353,1850
1749981532.0057178,1540
1749981532.005822,1278
1749981532.0059042,1049
1749981532.005986,965
1749981532.0060794,1189
1749981532.006272,1673
1749981532.0088983,2114
1749981532.0104108,2278
1749981532.0105097,2155
1749981532.0106072,1877
1749981532.010704,1579
1749981532.0108178,1308
1749981532.0109153,1054
1749981532.0110147,932
1749981532.0111127,1149
1749981532.0113597,1688
1749981532.0117333,2221
1749981532.0118308,2434
1749981532.0119276,2309
1749981532.0120225,2018
1749981532.012216,1738
1749981532.0123045,1491
1749981532.0123966,1215
1749981532.012948,986
1749981532.0130367,1073
1749981532.0131183,1555
1749981532.0131986,2142
1749981532.0132792,2442
1749981532.0147686,2369
1749981532.0148525,2085
1749981532.014942,1804
1749981532.0150242,1568
1749981532.0151644,1301
1749981532.0152442,1026
1749981532.0153224,1017
1749981532.0154004,1426
1749981532.0154784,2028
1749981532.0155535,2399
1749981532.015629,2388
1749981532.015706,2116
1749981532.0157838,1817
1749981532.0158613,1573
1749981532.015942,1330
1749981532.01602,1066
1749981532.016097,1014
1749981532.0161748,1358
1749981532.0236766,1940
1749981532.0237684,2349
1749981532.0238466,2389
1749981532.0239248,2144
1749981532.024003,1840
1749981532.0240808,1588
1749981532.024158,1351
1749981532.0242255,1083
1749981532.0242877,979
1749981532.024365,1256
1749981532.024443,1821
1749981532.0245202,2278
1749981532.0246,2379
1749981532.0246787,2171
1749981532.0247574,1871
1749981532.0248356,1609
1749981532.0249288,1372
1749981532.0250065,1104
1749981532.0250835,964
1749981532.025161,1195
1749981532.0252388,1758
1749981532.0253186,2271
1749981532.0254002,2432
1749981532.025478,2252
1749981532.025555,1940
1749981532.0256317,1664
1749981532.0257092,1436
1749981532.0257857,1182
1749981532.0258586,994
1749981532.0259304,1117
1749981532.0259998,1584
1749981532.0260692,2094
1749981532.0261385,2330
1749981532.0262077,2240
1749981532.0262773,1962
1749981532.0263464,1663
1749981532.026416,1397
1749981532.0264854,1139
1749981532.0265548,950
1749981532.026624,1047
1749981532.0266933,1479
1749981532.0267625,1991
1749981532.026832,2261
1749981532.0269015,2216
1749981532.0269706,1961
1749981532.0270402,1661
1749981532.0271094,1386
1749981532.0271792,1129
1749981532.0272489,926
1749981532.027318,980
1749981532.0273871,1379
1749981532.0274568,1913
1749981532.0275261,2241
1749981532.0275958,2247
1749981532.0276651,2014
1749981532.027742,1718
1749981532.0725875,1443
1749981532.072703,1186
1749981532.0728111,955
1749981532.0729275,953
1749981532.0730352,1313
1749981532.0731428,1874
1749981532.0853992,2264
1749981532.0868487,2315
1749981532.0917368,2093
1749981532.1079128,1791
1749981532.129501,1513
1749981532.1296296,1256
1749981532.130009,1000
1749981532.1301289,932
1749981532.1302834,1238
1749981532.1303911,1811
1749981532.130498,2270
1749981532.1306047,2382
1749981532.1307123,2185
1749981532.1308186,1881
1749981532.1309264,1603
1749981532.1310334,1354
1749981532.13114,1083
1749981532.1312466,932
1749981532.1319938,1127
1749981532.132101,1643
1749981532.1322954,2138
1749981532.1324027,2327
1749981532.1325092,2195
1749981532.1326165,1904
1749981532.1327229,1609
1749981532.1351278,1344
1749981532.1352396,1075
1749981532.1353467,917
1749981532.1361635,1103
1749981532.1363637,1634
1749981532.136472,2173
1749981532.1365764,2389
1749981532.1366794,2254
1749981532.13694,1951
1749981532.1370447,1667
1749981532.1371472,1425
1749981532.1372497,1158
1749981532.1373258,934
1749981532.1374002,1025
1749981532.137474,1513
1749981532.1375487,2103
1749981532.1376262,2400
1749981532.137701,2316
1749981532.1377766,2021
1749981532.1378527,1736
1749981532.137927,1506
1749981532.1380017,1248
1749981532.138076,983
1749981532.1381414,987
1749981532.1382012,1412
1749981532.1383119,2025
1749981532.13839,2395
1749981532.138467,2374
1749981532.138542,2093
1749981532.1386182,1794
1749981532.1386936,1554
1749981532.138768,1308
1749981532.138842,1032
1749981532.1389158,971
1749981532.1389897,1316
1749981532.1390638,1908
1749981532.139138,2326
1749981532.1392126,2368
1749981532.139287,2123
1749981532.1393616,1822
1749981532.1394355,1578
1749981532.1395097,1352
1749981532.1395838,1090
1749981532.1396587,975
1749981532.139733,1222
1749981532.1398168,1754
1749981532.1398914,2194
1749981532.139966,2303
1749981532.1400397,2110
1749981532.1401167,1811
1749981532.1401882,1540
1749981532.1402469,1307
1749981532.1403208,1065
1749981532.1403954,949
1749981532.14047,1173
1749981532.140549,1698
1749981532.1406229,2180
1749981532.1406977,2340
1749981532.1407716,2180
1749981532.1408458,1875
1749981532.1409209,1589
1749981532.1409955,1355
1749981532.1410706,1119
1749981532.1411464,963
1749981532.1412237,1105
1749981532.1413007,1567
1749981532.1413772,2063
1749981532.1414547,2292
1749981532.1415312,2204
1749981532.1416183,1929
1749981532.1416955,1634
1749981532.1417727,1380
1749981532.1423495,1137
1749981532.1430912,954
1749981532.1432414,1045
1749981532.1433468,1469
1749981532.1434493,1985
1749981532.144577,2267
1749981532.1446874,2227
1749981532.1447911,1968
1749981532.1449122,1666
1749981532.1450174,1400
1749981532.145121,1156
1749981532.1452234,954
1749981532.1453261,1004
1749981532.1454296,1408
1749981532.1455328,1962
1749981532.145636,2305
1749981532.1457474,2307
1749981532.1458502,2055
1749981532.1459532,1747
1749981532.1460557,1479
1749981532.1462736,1238
1749981532.1463776,1009
1749981532.1464803,988
1749981532.1465847,1323
1749981532.146689,1871
1749981532.1467915,2266
1749981532.1468933,2329
1749981532.1469953,2117
1749981532.1470973,1819
1749981532.1674066,1543
1749981532.2252197,1288
1749981532.2257118,1029
1749981532.2267473,938
1749981532.226858,1201
1749981532.2269666,1728
1749981532.2270744,2162
1749981532.2271807,2279
1749981532.2272873,2108
1749981532.227394,1820
1749981532.2275012,1539
1749981532.2450137,1281
1749981532.255897,1020
1749981532.2559862,910
1749981532.2561026,1162
1749981532.2561731,1721
1749981532.256247,2219
1749981532.2563248,2377
1749981532.273762,2209
1749981532.2827148,1908
1749981532.282806,1631
1749981532.2828891,1393
1749981532.2829711,1133
1749981532.2830863,946
1749981532.2831678,1071
1749981532.2832496,1544
1749981532.2833283,2064
1749981532.2834058,2308
1749981532.283479,2222
1749981532.283562,1940
1749981532.2836516,1639
1749981532.2837408,1385
1749981532.28383,1149
1749981532.2839196,965
1749981532.284009,1032
1749981532.2840984,1412
1749981532.2841856,1893
1749981532.2842565,2176
1749981532.2843459,2171
1749981532.284435,1939
1749981532.2845235,1626
1749981532.2846124,1330
1749981532.2847016,1086
1749981532.2848625,920
1749981532.2849855,994
1749981532.2850776,1365
1749981532.285168,1855
1749981532.2852602,2167
1749981532.2853494,2196
1749981532.285438,1984
1749981532.2855268,1673
1749981532.2856154,1371
1749981532.2857041,1123
1749981532.2857935,936
1749981532.2858825,956
1749981532.2859755,1278
1749981532.2860649,1769
1749981532.2861464,2129
1749981532.2862172,2213
1749981532.2863073,2042
1749981532.2863967,1750
1749981532.2864854,1446
1749981532.2865748,1176
1749981532.2866635,947
1749981532.286752,915
1749981532.2868407,1222
1749981532.286929,1763
1749981532.287018,2199
1749981532.2871065,2322
1749981532.287197,2155
1749981532.2872849,1861
1749981532.2873738,1566
1749981532.2874625,1302
1749981532.2875507,1043
1749981532.28764,929
1749981532.2877386,1165
1749981532.2878335,1707
1749981532.2879236,2210
1749981532.2880144,2394
1749981532.2881038,2252
1749981532.2881937,1959
1749981532.3161688,1674
1749981532.3162477,1420
1749981532.3168,1142
1749981532.3168743,942
1749981532.316947,1073
1749981532.3170414,1570
1749981532.3171446,2116
1749981532.3172207,2367
1749981532.3172934,2271
1749981532.3192704,1989
1749981532.3288398,1709
1749981532.3289511,1469
1749981532.3290572,1206
1749981532.329162,986
1749981532.3292682,1076
1749981532.3293803,1564
1749981532.3294911,2156
1749981532.3295946,2452
1749981532.329698,2365
1749981532.3298016,2064
1749981532.3321505,1778
1749981532.3957598,1552
1749981532.4134367,1305
1749981532.4139051,1044
1749981532.4143422,1035
1749981532.4157217,1436
1749981532.4158106,2031
1749981532.4158943,2401
1749981532.4159772,2391
1749981532.41606,2119
1749981532.416143,1821
1749981532.4162164,1589
1749981532.4162922,1370
1749981532.416374,1115
1749981532.4164562,1024
1749981532.4165387,1286
1749981532.4166207,1792
1749981532.4167032,2185
1749981532.4167852,2266
1749981532.4168673,2067
1749981532.4169493,1766
1749981532.4170356,1486
1749981532.4171178,1249
1749981532.4171996,1034
1749981532.417281,993
1749981532.417363,1293
1749981532.4174447,1835
1749981532.4175265,2266
1749981532.417608,2367
1749981532.4176896,2171
1749981532.418559,1863
1749981532.4187376,1583
1749981532.418873,1353
1749981532.4190197,1120
1749981532.4191916,1001
1749981532.4193265,1195
1749981532.4194734,1680
1749981532.419648,2144
1749981532.419811,2326
1749981532.4199824,2207
1749981532.4201157,1929
1749981532.423245,1638
1749981532.4234533,1382
1749981532.4236321,1132
1749981532.4238071,976
1749981532.4239886,1122
1749981532.4242218,1583
1749981532.4243968,2076
1749981532.4245825,2305
1749981532.4247577,2226
1749981532.4249551,1960
1749981532.425122,1665
1749981532.4377902,1401
1749981532.4378774,1148
1749981532.4681582,963
1749981532.4985662,1065
1749981532.4986498,1514
1749981532.5359676,2055
1749981532.5362372,2344
1749981532.5422018,2296
1749981532.5422862,2027
1749981532.5574567,1728
1749981532.5595512,1473
1749981532.5596232,1229
1749981532.5596914,1008
1749981532.5597587,1030
1749981532.5598264,1420
1749981532.559894,1981
1749981532.5599618,2339
1749981532.560031,2348
1749981532.5600975,2098
1749981532.5602467,1796
1749981532.5603247,1537
1749981532.560391,1298
1749981532.5604568,1050
1749981532.5605268,995
1749981532.560595,1305
1749981532.560662,1856
1749981532.5607293,2274
1749981532.5607963,2354
1749981532.5608628,2140
1749981532.5609276,1830
1749981532.5609944,1552
1749981532.561061,1321
1749981532.561127,1092
1749981532.5611928,1008
1749981532.561259,1250
1749981532.5613256,1754
1749981532.5613925,2192
1749981532.5614576,2335
1749981532.561525,2182
1749981532.5616364,1886
1749981532.5617023,1585
1749981532.5617685,1332
1749981532.5618348,1101
1749981532.561903,998
1749981532.5619676,1198
1749981532.6087048,1670
1749981532.6277945,2117
1749981532.6279275,2295
1749981532.6280324,2183
1749981532.6281362,1906
1749981532.6282802,1608
1749981532.6283832,1348
1749981532.6284852,1108
1749981532.6285987,973
1749981532.6288137,1142
1749981532.62892,1622
1749981532.6290371,2124
1749981532.6291413,2350
1749981532.6292443,2260
1749981532.6293557,1989
1749981532.6294696,1701
1749981532.6307263,1445
1749981532.630869,1184
1749981532.6309733,981
1749981532.6310766,1081
1749981532.6400735,1559
1749981532.6402888,2139
1749981532.6403964,2444
1749981532.640502,2378
1749981532.6406214,2091
1749981532.6407266,1802
1749981532.6783414,1572
1749981532.6784859,1330
1749981532.6878715,1070
1749981532.6879816,1037
1749981532.6880546,1393
1749981532.6881258,1951
1749981532.6881926,2316
1749981532.6882672,2330
1749981532.688343,2088
1749981532.6884146,1798
1749981532.6884854,1543
1749981532.6885571,1287
1749981532.688628,1025
1749981532.6886988,994
1749981532.6887703,1379
1749981532.6888416,2003
1749981532.6889129,2428
1749981532.6889842,2450
1749981532.689055,2184
1749981532.6891265,1884
1749981532.6891975,1658
1749981532.6892688,1441
1749981532.6893399,1155
1749981532.689411,1003
1749981532.689482,1243
1749981532.6895535,1811
1749981532.6896245,2297
1749981532.6896956,2419
1749981532.6897662,2213
1749981532.6898372,1908
1749981532.689908,1654
1749981532.6899788,1437
1749981532.69005,1179
1749981532.6901186,1015
1749981532.6901774,1195
1749981532.690254,1711
1749981532.6903257,2211
1749981532.6903968,2391
1749981532.690468,2239
1749981532.6905398,1938
1749981532.6906111,1658
1749981532.6906824,1432
1749981532.6907566,1195
1749981532.690828,1018
1749981532.6908991,1124
1749981532.6909704,1554
1749981532.6910415,2039
1749981532.6911128,2273
1749981532.6911838,2202
1749981532.6912549,1939
1749981532.6913254,1644
1749981532.6913974,1385
1749981532.6914687,1146
1749981532.6915405,975
1749981532.6916254,1076
1749981532.6916971,1504
1749981532.6917706,2019
1749981532.6918423,2293
1749981532.6919143,2247
1749981532.6919856,1989
1749981532.6920567,1697
1749981532.6921272,1441
1749981532.692194,1198
1749981532.6960127,982
1749981532.696091,1012
1749981532.6961687,1407
1749981532.6962304,1970
1749981532.6963024,2328
1749981532.6963735,2335
1749981532.696445,2084
1749981532.6967032,1781
1749981532.6967742,1519
1749981532.6968455,1275
1749981532.6969168,1029
1749981532.6969876,986
1749981532.6970592,1317
1749981532.6971297,1887
1749981532.6972005,2312
1749981532.697272,2388
1749981532.6973433,2172
1749981532.6974137,1872
1749981532.697484,1608
1749981532.6975553,1374
1749981532.697626,1117
1749981532.6976979,996
1749981532.6977699,1210
1749981532.6978433,1705
1749981532.6979146,2142
1749981532.697986,2282
1749981532.6980572,2128
1749981532.6981366,1840
1749981532.6982079,1549
1749981532.6982865,1288
1749981532.6983585,1035
1749981532.6984303,931
1749981532.6985013,1185
1749981532.698573,1750
1749981532.6986442,2264
1749981532.6987166,2434
1749981532.6987884,2265
1749981532.6988595,1956
1749981532.6989307,1678
1749981532.6990016,1446
1749981532.6990726,1182
1749981532.699144,977
1749981532.699215,1092
1749981532.6992857,1582
1749981532.6993573,2134
1749981532.6994286,2391
1749981532.6994996,2288
1749981532.6995707,1996
1749981532.6996417,1714
1749981532.7563002,1482
1749981532.757222,1227
1749981532.7573864,993
1749981532.7575488,1047
1749981532.7577975,1494
1749981532.7579606,2070
1749981532.7581215,2383
1749981532.758329,2327
1749981532.7584898,2046
1749981532.7586498,1758
1749981532.7588098,1521
1749981532.7589693,1268
1749981532.7591288,1010
1749981532.7592862,1006
1749981532.7593992,1415
1749981532.7595031,2020
1749981532.7596085,2393
1749981532.7597146,2376
1749981532.7598202,2098
1749981532.7599266,1801
1749981532.7600312,1568
1749981532.7601364,1333
1749981532.760243,1058
1749981532.7603498,980
1749981532.7604558,1308
1749981532.7605615,1902
1749981532.760669,2339
1749981532.760776,2395
1749981532.760881,2147
1749981532.7609868,1833
1749981532.761096,1583
1749981532.761201,1365
1749981532.7613065,1109
1749981532.7614121,974
1749981532.7615173,1183
1749981532.7616384,1686
1749981532.7617445,2131
1749981532.76185,2271
1749981532.7619557,2109
1749981532.7620625,1816
1749981532.7621653,1529
1749981532.7622716,1277
1749981532.76238,1028
1749981532.7624862,910
1749981532.7625928,1129
1749981532.7627017,1647
1749981532.7628086,2129
1749981532.7629144,2296
1749981532.763029,2151
1749981532.775978,1860
1749981532.7760634,1578
1749981532.7761426,1334
1749981532.7762213,1087
1749981532.7763355,926
1749981532.7764156,1082
1749981532.7764928,1576
1749981532.77657,2103
1749981532.7766473,2341
1749981532.7767243,2245
1749981532.7768,1965
1749981532.776866,1682
1749981532.7769344,1442
1749981532.7770138,1194
1749981532.777091,975
1749981532.777169,1013
1749981532.7772462,1400
1749981532.7773235,1915
1749981532.7774005,2219
1749981532.7774777,2208
1749981532.777555,1969
1749981532.7776318,1673
1749981532.777709,1401
1749981532.7777855,1147
1749981532.777863,937
1749981532.7779403,981
1749981532.7780178,1387
1749981532.7780983,1952
1749981532.7781768,2304
1749981532.7782867,2308
1749981532.778365,2059
1749981532.7784436,1759
1749981532.778521,1501
1749981532.778599,1261
1749981532.7786765,1018
1749981532.7787564,977
1749981532.7788222,1313
1749981532.7788882,1889
1749981532.7789574,2314
1749981532.7790344,2380
1749981532.7791114,2154
1749981532.779188,1850
1749981532.7792647,1589
1749981532.7793422,1358
1749981532.7794187,1102
1749981532.779496,975
1749981532.7795732,1188
1749981532.77965,1689
1749981532.8067603,2138
1749981532.8716197,2290
1749981532.8760688,2144
1749981532.876278,1852
1749981532.87646,1554
1749981532.8767245,1296
1749981532.8769228,1057
1749981532.8771584,944
1749981532.8774114,1139
1749981532.8969946,1612
1749981532.8977377,2068
1749981532.8978457,2256
1749981532.8979492,2152
1749981532.8980525,1875
1749981532.899746,1567
1749981532.9000683,1299
1749981532.900767,1065
1749981532.90106,938
1749981532.9151595,1098
1749981532.9275105,1551
1749981532.9389696,2037
1749981532.939258,2274
1749981532.9466724,2212
1749981532.9467533,1954
1749981532.9468255,1651
1749981532.9468968,1373
1749981532.9469683,1116
1749981532.9470396,935
1749981532.9471104,1037
1749981532.9471815,1481
1749981532.947253,2024
1749981532.9473243,2328
1749981532.947395,2297
1749981532.9474661,2037
1749981532.9475374,1736
1749981532.9476085,1475
1749981532.9476798,1230
1749981532.9477508,1005
1749981532.9478261,1004
1749981532.9478965,1356
1749981532.9479675,1890
1749981532.9480383,2253
1749981532.9641483,2296
1749981533.0530763,2081
1749981533.0917053,1786
1749981533.1207564,1511
1749981533.1529472,1254
1749981533.158868,1010
1749981533.1594737,978
1749981533.1596599,1316
1749981533.1608167,1883
1749981533.1609573,2298
1749981533.1612222,2365
1749981533.1615086,2148
1749981533.161933,1847
1749981533.16251,1577
1749981533.1626446,1331
1749981533.1627786,1072
1749981533.163318,976
1749981533.1634483,1254
1749981533.1635783,1828
1749981533.1637082,2314
1749981533.163838,2448
1749981533.1639683,2258
1749981533.1668704,1947
1749981533.1669583,1671
1749981533.167035,1443
1749981533.1685832,1192
1749981533.1686933,1023
1749981533.1687975,1156
1749981533.1707928,1603
1749981533.1709504,2072
1749981533.1711009,2284
1749981533.171205,2194
1749981533.1713312,1920
1749981533.178195,1613
1749981533.1786666,1341
1749981533.2260127,1094
1749981533.2334146,953
1749981533.2787075,1111
1749981533.3077538,1578
1749981533.3127189,2077
1749981533.3128614,2310
1749981533.3129938,2228
1749981533.3131242,1954
1749981533.3148541,1654
1749981533.3150563,1391
1749981533.3151882,1142
1749981533.3156018,955
1749981533.356897,1051
1749981533.356978,1505
1749981533.3570514,2068
1749981533.3571246,2380
1749981533.357197,2337
1749981533.3572688,2064
1749981533.3573408,1765
1749981533.3574123,1515
1749981533.3574846,1267
1749981533.3575556,1022
1749981533.3576272,1011
1749981533.3987656,1386
1749981533.4163663,1962
1749981533.4168258,2345
1749981533.4169424,2366
1749981533.4170246,2114
1749981533.417106,1811
1749981533.4171872,1559
1749981533.4172683,1320
1749981533.4173777,1057
1749981533.417458,977
1749981533.417539,1276
1749981533.4176188,1836
1749981533.4177067,2267
1749981533.4178274,2347
1749981533.417908,2133
1749981533.4179878,1834
1749981533.4180675,1571
1749981533.4181376,1327
1749981533.418209,1059
1749981533.4183004,951
1749981533.418381,1230
1749981533.4184608,1817
1749981533.4185405,2306
1749981533.41862,2423
1749981533.4187,2211
1749981533.4187794,1902
1749981533.4188592,1651
1749981533.4189394,1438
1749981533.419019,1177
1749981533.419098,996
1749981533.4191778,1159
1749981533.4192579,1678
1749981533.4193377,2199
1749981533.4194171,2395
1749981533.419497,2248
1749981533.4195764,1950
1749981533.4196587,1683
1749981533.419738,1461
1749981533.4198177,1205
1749981533.4198973,997
1749981533.4272962,1102
1749981533.4274209,1581
1749981533.4275389,2124
1749981533.4276536,2369
1749981533.4277682,2259
1749981533.4278822,1964
1749981533.4279964,1685
1749981533.4281101,1458
1749981533.4282298,1211
1749981533.4283447,984
1749981533.4284585,1043
1749981533.4285734,1497
1749981533.4286878,2078
1749981533.4288113,2386
1749981533.4288921,2317
1749981533.436196,2027
1749981533.4363272,1744
1749981533.4364016,1526
1749981533.4364748,1292
1749981533.4365478,1032
1749981533.43662,998
1749981533.436692,1363
1749981533.4367638,1940
1749981533.4368353,2316
1749981533.4369073,2325
1749981533.4395118,2072
1749981533.4395955,1783
1749981533.4396708,1548
1749981533.439744,1319
1749981533.439817,1060
1749981533.4398892,987
1749981533.439962,1298
1749981533.4400344,1864
1749981533.4401076,2285
1749981533.440179,2345
1749981533.442627,2116
1749981533.4427028,1815
1749981533.442776,1564
1749981533.4428484,1340
1749981533.4429207,1084
1749981533.4429932,963
1749981533.4430654,1197
1749981533.443138,1729
1749981533.4432092,2193
1749981533.4432917,2326
1749981533.4433637,2147
1749981533.4434354,1847
1749981533.4435062,1573
1749981533.4435778,1342
1749981533.4436498,1095
1749981533.4437218,948
1749981533.443793,1126
1749981533.4438648,1625
1749981533.4439363,2118
1749981533.4440084,2311
1749981533.4440804,2183
1749981533.444152,1899
1749981533.4442143,1622
1749981533.4442837,1383
1749981533.4443552,1129
1749981533.4444268,946
1749981533.4444988,1080
1749981533.44457,1572
1749981533.444642,2118
1749981533.444713,2366
1749981533.444785,2261
1749981533.4448571,1969
1749981533.4449685,1686
1749981533.4468205,1453
1749981533.4468927,1202
1749981533.446969,973
1749981533.4470406,1024
1749981533.447112,1467
1749981533.4471915,2050
1749981533.447263,2378
1749981533.4473343,2334
1749981533.4474077,2052
1749981533.4474845,1753
1749981533.4475563,1513
1749981533.4478765,1283
1749981533.4479487,1042
1749981533.4480212,1001
1749981533.4480934,1313
1749981533.4481654,1829
1749981533.4482975,2198
1749981533.4483733,2257
1749981533.448446,2051
1749981533.448518,1747
1749981533.4485905,1457
1749981533.448665,1209
1749981533.4487386,995
1749981533.4488115,970
1749981533.4488852,1260
1749981533.4489574,1751
1749981533.4490306,2127
1749981533.4491024,2220
1749981533.4491796,2052
1749981533.4492514,1760
1749981533.449323,1461
1749981533.4493954,1204
1749981533.4494677,986
1749981533.4495394,942
1749981533.4496117,1219
1749981533.4496837,1732
1749981533.4497564,2157
1749981533.4498284,2283
1749981533.4499009,2128
1749981533.4499748,1844
1749981533.450051,1555
1749981533.4501202,1290
1749981533.4501798,1030
1749981533.4502485,906
1749981533.450321,1135
1749981533.4503925,1685
1749981533.4504647,2209
1749981533.4505367,2406
1749981533.450609,2267
1749981533.450681,1972
1749981533.4507532,1692
1749981533.4508247,1451
1749981533.450897,1184
1749981533.4509687,968
1749981533.4510405,1057
1749981533.4511192,1515
1749981533.4511945,2060
1749981533.5279937,2344
1749981533.5309768,2281
1749981533.531315,2001
1749981533.535633,1696
1749981533.5359771,1439
1749981533.5363042,1194
1749981533.5366368,987
1749981533.5369608,1029
1749981533.5372806,1414
1749981533.5376031,1932
1749981533.537927,2248
1749981533.5382762,2247
1749981533.5387475,2006
1749981533.5459526,1696
1749981533.5541162,1411
1749981533.5631888,1160
1749981533.6261542,962
1749981533.6387415,1008
1749981533.6555467,1398
1749981533.655649,1947
1749981533.6557336,2305
1749981533.6558142,2332
1749981533.655913,2100
1749981533.6559927,1792
1749981533.6560707,1510
1749981533.6561413,1260
1749981533.6562128,1026
1749981533.6563144,977
1749981533.6563935,1266
1749981533.6564784,1782
1749981533.6565552,2189
1749981533.656632,2295
1749981533.6567097,2122
1749981533.656812,1830
1749981533.656891,1538
1749981533.6570132,1279
1749981533.6620958,1037
1749981533.6621635,964
1749981533.6622303,1235
1749981533.6623013,1773
1749981533.662372,2231
1749981533.662445,2372
1749981533.662517,2208
1749981533.6625874,1911
1749981533.662657,1616
1749981533.6627266,1351
1749981533.6627965,1088
1749981533.6628654,960
1749981533.6629415,1186
1749981533.663012,1741
1749981533.663082,2274
1749981533.6631522,2475
1749981533.663222,2334
1749981533.6632917,2032
1749981533.6633618,1744
1749981533.6634412,1500
1749981533.6635108,1237
1749981533.6635807,1020
1749981533.6636505,1083
1749981533.66372,1493
1749981533.6637897,1997
1749981533.6638591,2275
1749981533.6639295,2243
1749981533.663999,1993
1749981533.6640701,1685
1749981533.6641417,1404
1749981533.6642077,1149
1749981533.6642683,965
1749981533.664338,1048
1749981533.6644082,1455
1749981533.6644783,1966
1749981533.6650357,2256
1749981533.66511,2236
1749981533.6651804,1992
1749981533.6656473,1691
1749981533.6657295,1414
1749981533.6657994,1157
1749981533.665869,945
1749981533.6659384,989
1749981533.6660082,1402
1749981533.6660776,1985
1749981533.6661491,2356
1749981533.6662192,2363
1749981533.6662893,2107
1749981533.6663587,1803
1749981533.6664286,1550
1749981533.666498,1309
1749981533.6665676,1043
1749981533.6666381,959
1749981533.6667075,1260
1749981533.6667774,1835
1749981533.666847,2288
1749981533.6669161,2387
1749981533.666986,2179
1749981533.6670554,1877
1749981533.6671247,1608
1749981533.6671944,1361
1749981533.6672647,1088
1749981533.6673338,963
1749981533.6674097,1211
1749981533.6674793,1771
1749981533.667549,2263
1749981533.6676188,2409
1749981533.667688,2224
1749981533.6677573,1912
1749981533.6678274,1632
1749981533.6678967,1402
1749981533.6679726,1152
1749981533.6682425,985
1749981533.6683066,1127
1749981533.6683762,1594
1749981533.6684453,2081
1749981533.668515,2295
1749981533.6685843,2192
1749981533.6686532,1911
1749981533.6687224,1613
1749981533.6687915,1352
1749981533.6688602,1101
1749981533.668929,945
1749981533.6689985,1106
1749981533.6690683,1609
1749981533.6691408,2155
1749981533.6692111,2403
1749981533.6692803,2301
1749981533.6693487,2006
1749981533.6694171,1713
1749981533.669486,1472
1749981533.6695554,1223
1749981533.6696239,998
1749981533.6696928,1050
1749981533.6697626,1489
1749981533.669832,2069
1749981533.6699014,2397
1749981533.6699712,2357
1749981533.670041,2084
1749981533.6701071,1797
1749981533.6701727,1556
1749981533.6956568,1299
1749981533.7166007,1029
1749981533.7169356,1006
1749981533.7170203,1401
1749981533.7171082,2012
1749981533.7172587,2405
1749981533.7173543,2402
1749981533.7174377,2127
1749981533.7177253,1828
1749981533.7727582,1598
1749981533.834284,1370
1749981533.8351877,1090
1749981533.835264,984
1749981533.8353362,1277
1749981533.8354077,1859
1749981533.8354793,2313
1749981533.87885,2395
1749981533.9156265,2165
1749981533.9159687,1853
1749981533.916301,1595
1749981533.9166312,1369
1749981533.9169621,1110
1749981533.9172924,982
1749981533.9176223,1213
1749981533.917952,1753
1749981533.952998,2229
1749981533.9545977,2368
1749981533.9547694,2186
1749981533.994494,1878
1749981533.9951653,1600
1749981533.9962132,1369
1749981533.996292,1125
1749981533.9963655,972
1749981533.996435,1134
1749981533.9965446,1613
1749981533.9966178,2100
1749981533.9966896,2301
1749981533.9967613,2185
1749981533.9968326,1898
1749981533.9969034,1606
1749981533.9996984,1360
1749981533.9998157,1119
1749981533.999925,950
1749981534.0003257,1066
1749981534.0004354,1510
1749981534.0005443,2013
1749981534.000653,2258
1749981534.0007625,2185
1749981534.0008707,1920
1749981534.00098,1631
1749981534.001088,1374
1749981534.0011957,1120
1749981534.001304,920
1749981534.0014126,1010
1749981534.0015204,1473
1749981534.0016537,2053
1749981534.001878,2368
1749981534.0019877,2318
1749981534.0020971,2039
1749981534.0022063,1746
1749981534.002315,1511
1749981534.0024247,1278
1749981534.0025342,1028
1749981534.002644,979
1749981534.0046308,1293
1749981534.004778,1821
1749981534.0049813,2197
1749981534.0051372,2253
1749981534.0053258,2043
1749981534.0054722,1749
1749981534.0056314,1476
1749981534.0057795,1226
1749981534.0059257,988
1749981534.0060723,946
1749981534.006218,1265
1749981534.0063634,1816
1749981534.0065098,2230
1749981534.0066557,2307
1749981534.0068018,2100
1749981534.0069473,1799
1749981534.0070944,1524
1749981534.0072396,1273
1749981534.0073848,1010
1749981534.007538,906
1749981534.0076845,1177
1749981534.0078304,1749
1749981534.0079806,2237
1749981534.0086865,2368
1749981534.0088394,2173
1749981534.008986,1873
1749981534.009133,1623
1749981534.0092807,1409
1749981534.0094278,1146
1749981534.009583,956
1749981534.0097332,1109
1749981534.0098803,1626
1749981534.0100272,2159
1749981534.0101738,2370
1749981534.010321,2232
1749981534.0104675,1934
1749981534.0106142,1659
1749981534.0107603,1425
1749981534.0109072,1158
1749981534.0110538,944
1749981534.0112019,1061
1749981534.011349,1571
1749981534.0115187,2151
1749981534.0116777,2417
1749981534.0122304,2305
1749981534.0134554,2000
1749981534.0135772,1719
1749981534.0137594,1501
1749981534.0139182,1261
1749981534.0141358,1014
1749981534.0142443,1014
1749981534.0376523,1396
1749981534.0878844,1943
1749981534.1094723,2279
1749981534.1386795,2269
1749981534.1732564,2011
1749981534.183079,1704
1749981534.1832273,1445
1749981534.1870115,1219
1749981534.1870892,1010
1749981534.1871605,999
1749981534.1872313,1309
1749981534.1873024,1798
1749981534.1873734,2144
1749981534.1874442,2201
1749981534.187515,2003
1749981534.187586,1697
1749981534.1876562,1396
1749981534.1877267,1149
1749981534.1877975,957
1749981534.1878679,956
1749981534.1879377,1254
1749981534.1880078,1739
1749981534.1880786,2113
1749981534.1881487,2215
1749981534.1882088,2056
1749981534.1895387,1760
1749981534.1896348,1446
1749981534.2390406,1186
1749981534.2851892,978
1749981534.3629453,926
1749981534.4410033,1153
1749981534.451971,1599
1749981534.4520876,1997
1749981534.452291,2159
1749981534.4523957,2064
1749981534.4525006,1797
1749981534.4526036,1473
1749981534.452708,1184
1749981534.4528115,953
1749981534.4529157,876
1749981534.4530199,1091
1749981534.453123,1559
1749981534.4532263,2015
1749981534.4533298,2227
1749981534.453433,2160
1749981534.453536,1899
1749981534.4536395,1572
1749981534.4537425,1271
1749981534.4538617,1020
1749981534.4539657,885
1749981534.454069,1024
1749981534.454273,1447
1749981534.454377,1922
1749981534.4544797,2188
1749981534.5147486,2177
1749981534.523757,1950
1749981534.5242627,1636
1749981534.5416374,1330
1749981534.5478556,1068
1749981534.5750978,899
1749981534.576379,988
1749981534.5765228,1378
1749981534.5766397,1874
1749981534.576869,2186
1749981534.5860136,2218
1749981534.5886536,2012
1749981534.588775,1700
1749981534.5888917,1384
1749981534.5890207,1116
1749981534.589136,927
1749981534.5892506,971
1749981534.5893648,1325
1749981534.5895064,1827
1749981534.5896213,2179
1749981534.589735,2253
1749981534.590178,2075
1749981534.5903378,1773
1749981534.5904415,1452
1749981534.5915384,1175
1749981534.591656,959
1749981534.5917602,948
1749981534.5918632,1248
1749981534.5919657,1744
1749981534.5920684,2136
1749981534.5922253,2260
1749981534.592329,2119
1749981534.592433,1829
1749981534.5925355,1504
1749981534.592626,1220
1749981534.592697,989
1749981534.5927672,929
1749981534.5928373,1170
1749981534.5929072,1644
1749981534.592977,2068
1749981534.5930467,2242
1749981534.5931172,2144
1749981534.5931878,1874
1749981534.5932577,1552
1749981534.5933273,1259
1749981534.593405,1016
1749981534.5934753,921
1749981534.5935469,1129
1749981534.5936177,1606
1749981534.5936882,2075
1749981534.593763,2291
1749981534.5938332,2217
1749981534.5939028,1954
1749981534.593973,1638
1749981534.5940425,1348
1749981534.5941079,1092
1749981534.5941665,942
1749981534.5942333,1086
1749981534.5943038,1543
1749981534.5943737,2057
1749981534.5944433,2329
1749981534.5945137,2291
1749981534.594585,2040
1749981534.594657,1733
1749981534.594729,1449
1749981534.5948012,1183
