1750239652.2891653,1284
1750239652.3142436,1555
1750239652.3776808,2069
1750239652.4043012,2480
1750239652.456497,2578
1750239652.4567387,2388
1750239652.4568512,2077
1750239652.4569812,1786
1750239652.4576073,1568
1750239652.457839,1376
1750239652.457949,1286
1750239652.458074,1472
1750239652.4581976,1920
1750239652.4596977,2340
1750239652.459813,2497
1750239652.4599602,2376
1750239652.4600704,2092
1750239652.4602485,1785
1750239652.460338,1538
1750239652.4604266,1342
1750239652.460515,1249
1750239652.4605954,1427
1750239652.4606662,1886
1750239652.4607406,2356
1750239652.460814,2560
1750239652.4608872,2463
1750239652.460961,2178
1750239652.461034,1860
1750239652.4615126,1600
1750239652.4625292,1391
1750239652.4626694,1251
1750239652.4629261,1359
1750239652.4631464,1780
1750239652.4639401,2285
1750239652.4680188,2555
1750239652.469722,2509
1750239652.469846,2248
1750239652.4699674,1947
1750239652.4700882,1692
1750239652.4702063,1476
1750239652.4703147,1286
1750239652.4703982,1307
1750239652.4704778,1667
1750239652.4705577,2195
1750239652.4706373,2532
1750239652.4707253,2540
1750239652.4708078,2295
1750239652.4708874,1985
1750239652.470971,1721
1750239652.4710588,1517
1750239652.4711347,1329
1750239652.471203,1305
1750239652.4712865,1598
1750239652.471373,2102
1750239652.471458,2471
1750239652.471526,2528
1750239652.4716003,2319
1750239652.4716783,2012
1750239652.4717727,1728
1750239652.4718664,1510
1750239652.4719734,1316
1750239652.4720523,1259
1750239652.4721282,1509
1750239652.4722147,2010
1750239652.4723077,2432
1750239652.4723942,2552
1750239652.472487,2384
1750239652.4725718,2082
1750239652.4726624,1786
1750239652.4727483,1556
1750239652.4728324,1357
1750239652.4798756,1263
1750239652.4799562,1461
1750239652.4800327,1948
1750239652.4801047,2418
1750239652.480175,2596
1750239652.4802506,2465
1750239652.4803364,2169
1750239652.4804056,1871
1750239652.4804747,1641
1750239652.4805458,1442
1750239652.4806178,1304
1750239652.480702,1425
1750239652.4807723,1863
1750239652.480847,2366
1750239652.4809191,2616
1750239652.4810047,2546
1750239652.4810796,2266
1750239652.4811504,1951
1750239652.4812267,1697
1750239652.4813435,1493
1750239652.4814205,1329
1750239652.481492,1380
1750239652.4815686,1740
1750239652.48164,2224
1750239652.481732,2512
1750239652.4818118,2502
1750239652.483188,2263
1750239652.4832625,1958
1750239652.4833877,1686
1750239652.4834652,1468
1750239652.4835458,1293
1750239652.4836164,1326
1750239652.4836862,1686
1750239652.4837615,2218
1750239652.4844275,2568
1750239652.4845037,2585
1750239652.4845817,2341
1750239652.484674,2021
1750239652.4847522,1740
1750239652.4851975,1523
1750239652.4852781,1325
1750239652.485346,1281
1750239652.4854136,1559
1750239652.4854846,2078
1750239652.4855509,2491
1750239652.485643,2589
1750239652.485713,2398
1750239652.485782,2088
1750239652.485852,1800
1750239652.4859192,1586
1750239652.4859886,1395
1750239652.4874663,1308
1750239652.4875715,1499
1750239652.487675,1951
1750239652.4877775,2370
1750239652.4878807,2522
1750239652.4879942,2396
1750239652.4904156,2111
1750239652.4907112,1803
1750239652.4908185,1552
1750239652.490923,1346
1750239652.4917166,1254
1750239652.4922233,1454
1750239652.492291,1947
1750239652.4923537,2436
1750239652.4924226,2631
1750239652.492492,2508
1750239652.492563,2210
1750239652.4926314,1905
1750239652.492705,1668
1750239652.4927766,1464
1750239652.4928439,1307
1750239652.4929125,1398
1750239652.4929807,1817
1750239652.49305,2330
1750239652.493123,2605
1750239652.4931912,2554
1750239652.4932601,2281
1750239652.493335,1967
1750239652.49341,1707
1750239652.4934843,1498
1750239652.4935594,1319
1750239652.493634,1340
1750239652.4937088,1672
1750239652.4937832,2158
1750239652.49387,2472
1750239652.493946,2493
1750239652.494022,2273
1750239652.4940972,1966
1750239652.4941726,1682
1750239652.4942486,1464
1750239652.494324,1295
1750239652.4944026,1309
1750239652.4944794,1623
1750239652.50051,2115
1750239652.5005999,2463
1750239652.5006733,2518
1750239652.506861,2318
1750239652.506955,2014
1750239652.5088804,1723
1750239652.509024,1502
1750239652.5093045,1325
1750239652.5093775,1297
1750239652.509449,1561
1750239652.5095217,2051
1750239652.5095916,2453
1750239652.5096679,2564
1750239652.5097358,2399
1750239652.509802,2100
1750239652.510066,1798
1750239652.510134,1560
1750239652.5102017,1356
1750239652.5102708,1266
1750239652.510338,1466
1750239652.510404,1945
1750239652.5108542,2400
1750239652.5111828,2573
1750239652.5121353,2449
1750239652.5122933,2163
1750239652.5124488,1865
1750239652.5126054,1625
1750239652.5127609,1417
1750239652.5129178,1285
1750239652.5130782,1428
1750239652.5132263,1886
1750239652.5133939,2389
1750239652.5135431,2623
1750239652.5137765,2534
1750239652.5139523,2247
1750239652.5141125,1937
1750239652.5142572,1686
1750239652.51448,1472
1750239652.5153108,1300
1750239652.5157018,1363
1750239652.5212493,1759
1750239652.5254211,2277
1750239652.5255046,2574
1750239652.5255742,2546
1750239652.5256433,2287
1750239652.5257158,1976
1750239652.5257916,1715
1750239652.5258634,1505
1750239652.525935,1322
1750239652.5260062,1338
1750239652.5260775,1684
1750239652.5261514,2208
1750239652.5262227,2555
1750239652.5262938,2574
1750239652.526364,2335
1750239652.5264354,2023
1750239652.5265062,1752
1750239652.5265772,1543
1750239652.526648,1351
1750239652.5267196,1317
1750239652.5267909,1607
1750239652.526862,2131
1750239652.526933,2534
1750239652.5270038,2614
1750239652.5270746,2409
1750239652.527146,2098
1750239652.5272138,1814
1750239652.5282295,1596
1750239652.5283394,1391
1750239652.5284445,1301
1750239652.528564,1522
1750239652.5286727,2022
1750239652.5287778,2465
1750239652.528883,2597
1750239652.5289874,2426
1750239652.5290914,2120
1750239652.5291955,1836
1750239652.5293117,1625
1750239652.529416,1425
1750239652.5295055,1298
1750239652.5295782,1453
1750239652.5296512,1924
1750239652.5299141,2415
1750239652.5299866,2622
1750239652.5300846,2507
1750239652.5301728,2213
1750239652.5302463,1914
1750239652.5303178,1684
1750239652.5303905,1480
1750239652.5304646,1323
1750239652.530541,1421
1750239652.530614,1850
1750239652.5306866,2364
1750239652.5307584,2624
1750239652.5308309,2551
1750239652.5309029,2265
1750239652.5309746,1961
1750239652.5310469,1723
1750239652.531119,1524
1750239652.53119,1343
1750239652.5554373,1373
1750239652.5555694,1741
1750239652.5567122,2264
1750239652.5570714,2582
1750239652.5572705,2566
1750239652.5574439,2305
1750239652.5576615,1998
1750239652.5577867,1744
1750239652.557917,1538
1750239652.5580587,1337
1750239652.5582006,1317
1750239652.5583367,1640
1750239652.558641,2179
1750239652.5587611,2556
1750239652.5588977,2589
1750239652.5590374,2347
1750239652.5600014,2032
1750239652.5609548,1770
1750239652.5620742,1571
1750239652.5624466,1371
1750239652.5625885,1301
1750239652.56273,1554
1750239652.5628643,2071
1750239652.5630095,2499
1750239652.5631502,2604
1750239652.5632915,2413
1750239652.5634375,2107
1750239652.564687,1827
1750239652.5648277,1615
1750239652.5655897,1412
1750239652.5657341,1310
1750239652.565864,1511
1750239652.5664468,2009
1750239652.566582,2477
1750239652.5667405,2637
1750239652.566882,2484
1750239652.5670216,2182
1750239652.567156,1891
1750239652.5673044,1667
1750239652.5680535,1463
1750239652.5682697,1322
1750239652.5684912,1454
1750239652.5689447,1904
1750239652.569702,2397
1750239652.5698266,2621
1750239652.5699399,2526
1750239652.5700533,2240
1750239652.5701663,1936
1750239652.5702786,1695
1750239652.570392,1491
1750239652.570506,1328
1750239652.5706394,1394
1750239652.5707517,1777
1750239652.5708647,2267
1750239652.570977,2541
1750239652.57109,2506
1750239652.5713527,2248
1750239652.5715814,1937
1750239652.5786023,1672
1750239652.5815988,1465
1750239652.5817533,1303
1750239652.5819151,1354
1750239652.582081,1730
1750239652.5822318,2262
1750239652.582359,2600
1750239652.5825443,2604
1750239652.5827475,2353
1750239652.5829425,2036
1750239652.583141,1765
1750239652.5833623,1554
1750239652.583557,1359
1750239652.5837212,1327
1750239652.5838883,1624
1750239652.584052,2152
1750239652.5842364,2551
1750239652.5851226,2622
1750239652.5878077,2409
1750239652.5879953,2097
1750239652.5882432,1818
1750239652.5885444,1599
1750239652.5904796,1383
1750239652.5913925,1287
1750239652.592572,1514
1750239652.5933554,2030
1750239652.5934415,2485
1750239652.5935447,2618
1750239652.593659,2441
1750239652.5938878,2132
1750239652.5942852,1847
1750239652.595079,1634
1750239652.5977342,1433
1750239652.5985622,1318
1750239652.599014,1498
1750239652.5993984,1990
1750239652.5995917,2480
1750239652.5999513,2664
1750239652.6003952,2517
1750239652.6008282,2196
1750239652.6014216,1880
1750239652.6020963,1643
1750239652.602713,1434
1750239652.6037967,1266
1750239652.6054957,1335
1750239652.6059039,1718
1750239652.606741,2192
1750239652.60784,2447
1750239652.6099758,2406
1750239652.6107254,2155
1750239652.6115549,1851
1750239652.6125503,1592
1750239652.613242,1385
1750239652.6137853,1239
1750239652.614236,1327
1750239652.61552,1732
1750239652.6176314,2252
1750239652.6177998,2549
1750239652.6187012,2519
1750239652.6192596,2256
1750239652.619761,1944
1750239652.6210928,1688
1750239652.6215541,1491
1750239652.6218953,1315
1750239652.6222925,1320
1750239652.6230159,1649
1750239652.6233494,2174
1750239652.6249986,2540
1750239652.6255057,2579
1750239652.6258845,2349
1750239652.6262095,2038
1750239652.626661,1768
1750239652.6270156,1557
1750239652.627377,1352
1750239652.6383564,1288
1750239652.6417706,1549
1750239652.6423192,2071
1750239652.6428668,2499
1750239652.6584733,2604
1750239652.7176502,2410
1750239652.7773817,2098
1750239652.8960443,1813
1750239652.9913929,1596
1750239653.0868218,1389
1750239653.1531878,1284
1750239653.1933033,1485
1750239653.3238466,1984
1750239653.3988712,2452
1750239653.432181,2610
1750239653.4558518,2451
1750239653.456192,2137
1750239653.4565463,1837
1750239653.457177,1610
1750239653.4576106,1403
1750239653.4976847,1264
1750239653.6410162,1404
1750239653.7313325,1865
1750239653.8649046,2367
1750239653.9744437,2589
1750239654.0046785,2481
1750239654.1057715,2180
1750239654.2062247,1870
1750239654.3002918,1635
1750239654.3596127,1442
1750239654.410725,1287
1750239654.5262024,1356
1750239654.592723,1736
1750239654.6084597,2222
1750239654.6269002,2496
1750239654.6944568,2463
1750239654.7395856,2207
1750239654.8034737,1893
1750239654.888324,1623
1750239654.930484,1413
1750239654.973652,1259
1750239655.0634756,1327
1750239655.1723223,1715
1750239655.3009067,2248
1750239655.4114668,2582
1750239655.5354764,2592
1750239655.608198,2351
1750239655.698561,2038
1750239655.7879121,1765
1750239655.8096437,1555
1750239655.8325822,1377
1750239655.8564925,1375
1750239655.8587112,1694
1750239655.8736048,2223
1750239655.926996,2611
1750239655.980342,2673
1750239656.089116,2456
1750239656.1248853,2139
1750239656.2503166,1849
1750239656.291756,1620
1750239656.403234,1407
1750239656.4533348,1329
1750239656.5363488,1572
1750239656.541782,2088
1750239656.590796,2529
1750239656.6169152,2651
1750239656.6380525,2470
1750239656.6786249,2158
1750239656.798648,1861
1750239656.8493116,1626
1750239656.8781857,1398
1750239656.9261253,1256
1750239657.0276442,1417
1750239657.1074126,1895
1750239657.1629078,2374
1750239657.2136343,2557
1750239657.2895765,2419
1750239657.371641,2118
1750239657.4562006,1829
1750239657.567011,1610
1750239657.6280468,1407
1750239657.6851158,1249
1750239657.7260303,1353
1750239657.7568755,1789
1750239657.806071,2292
1750239657.8292313,2526
1750239657.8565507,2429
1750239657.9331126,2137
1750239657.9608333,1839
1750239657.9772909,1616
1750239658.0039783,1424
1750239658.1096847,1252
1750239658.2212481,1302
1750239658.3241372,1691
1750239658.362502,2218
1750239658.3627198,2521
1750239658.3948658,2486
1750239658.491516,2214
1750239658.5190704,1908
1750239658.5375178,1667
1750239658.6120713,1475
1750239658.633279,1289
1750239658.7023551,1282
1750239658.7939374,1609
1750239658.8395832,2139
1750239658.8602924,2506
1750239658.9440536,2539
1750239659.0343087,2303
1750239659.1038744,1991
1750239659.1915317,1727
1750239659.1941385,1530
1750239659.2035656,1342
1750239659.2036731,1294
1750239659.2037768,1565
1750239659.203879,2082
1750239659.2039816,2494
1750239659.2040832,2581
1750239659.2041852,2378
1750239659.2098012,2066
1750239659.2099116,1787
1750239659.2100148,1578
1750239659.2101173,1377
1750239659.2104855,1279
1750239659.2105653,1487
1750239659.2106407,1986
1750239659.2107155,2444
1750239659.2107897,2591
1750239659.2108643,2422
1750239659.210939,2110
1750239659.211536,1821
1750239659.2116432,1610
1750239659.2117472,1414
1750239659.21185,1277
1750239659.2119663,1412
1750239659.2310073,1867
1750239659.2312808,2361
1750239659.2314103,2576
1750239659.2314887,2463
1750239659.2315655,2160
1750239659.2319524,1853
1750239659.2374828,1624
1750239659.237563,1427
1750239659.2376387,1268
1750239659.237713,1347
1750239659.2377877,1756
1750239659.2378623,2270
1750239659.2379372,2545
1750239659.2380114,2486
1750239659.2380865,2200
1750239659.2381606,1885
1750239659.2382355,1640
1750239659.2679222,1445
1750239659.2779193,1271
1750239659.299495,1299
1750239659.3000526,1658
1750239659.3001978,2182
1750239659.3002863,2512
1750239659.300356,2504
1750239659.307628,2241
1750239659.3807938,1923
1750239659.3812327,1666
1750239659.3816214,1471
1750239659.3821845,1285
1750239659.3826268,1260
1750239659.3829937,1564
1750239659.3833597,2093
1750239659.3837252,2487
1750239659.3840904,2547
1750239659.39731,2320
1750239659.397482,1997
1750239659.397564,1717
1750239659.3976433,1512
1750239659.397721,1319
1750239659.397799,1249
1750239659.3978918,1488
1750239659.3979704,1993
1750239659.3980572,2425
1750239659.3981342,2546
1750239659.3982115,2366
1750239659.398289,2055
1750239659.3983803,1764
1750239659.3984597,1546
1750239659.3985367,1347
1750239659.3989727,1239
1750239659.399055,1424
1750239659.3991234,1906
1750239659.3991835,2380
1750239659.3993287,2559
1750239659.399409,2422
1750239659.399478,2117
1750239659.3995397,1813
1750239659.3996103,1580
1750239659.3996875,1374
1750239659.3997715,1232
1750239659.399849,1360
1750239659.3999255,1812
1750239659.447284,2322
1750239659.481584,2564
1750239659.4848144,2473
1750239659.4850886,2179
1750239659.4853888,1870
1750239659.4890645,1634
1750239659.5116541,1437
1750239659.512117,1272
1750239659.5122218,1332
1750239659.5123072,1725
1750239659.5123901,2247
1750239659.512473,2549
1750239659.5125551,2517
1750239659.5126367,2244
1750239659.512719,1923
1750239659.512799,1660
1750239659.5128784,1453
1750239659.5129573,1271
1750239659.513036,1285
1750239659.513115,1632
1750239659.5131948,2164
1750239659.513274,2517
1750239659.5133536,2536
1750239659.513432,2292
1750239659.5135114,1978
1750239659.51359,1711
1750239659.5136695,1503
1750239659.5137484,1304
1750239659.5138278,1258
1750239659.5139081,1539
1750239659.5315773,2061
1750239659.5316796,2468
1750239659.5838675,2551
1750239659.5889738,2346
1750239659.600709,2034
1750239659.6167753,1751
1750239659.6168516,1536
1750239659.6169229,1334
1750239659.6169946,1251
1750239659.6170657,1477
1750239659.6171367,1982
1750239659.6172073,2432
1750239659.617278,2572
1750239659.6173487,2406
1750239659.6174188,2097
1750239659.6174898,1799
1750239659.6175604,1572
1750239659.6176329,1368
1750239659.6177049,1248
1750239659.617777,1412
1750239659.6178486,1882
1750239659.6179185,2363
1750239659.6179883,2562
1750239659.61806,2447
1750239659.6181326,2155
1750239659.6182044,1854
1750239659.618284,1617
1750239659.6183503,1409
1750239659.6184185,1254
1750239659.618491,1355
1750239659.6249897,1783
1750239659.6267853,2293
1750239659.6271195,2552
1750239659.627451,2485
1750239659.627805,2207
1750239659.6281688,1901
1750239659.6284947,1653
1750239659.6650608,1442
1750239659.6654758,1260
1750239659.6655579,1300
1750239659.665651,1681
1750239659.6658266,2213
1750239659.6660056,2536
1750239659.66613,2519
1750239659.6662543,2253
1750239659.6663847,1937
1750239659.6665103,1680
1750239659.6666343,1477
1750239659.6667655,1286
1750239659.6673229,1269
1750239659.667488,1584
1750239659.66757,2113
1750239659.673567,2491
1750239659.6736767,2537
1750239659.6737595,2308
1750239659.6738412,1997
1750239659.6739306,1730
1750239659.6740158,1528
1750239659.674112,1331
1750239659.674206,1266
1750239659.6746428,1521
1750239659.6785374,2039
1750239659.6786773,2469
1750239659.6787856,2575
1750239659.678896,2382
1750239659.6790035,2066
1750239659.6792133,1778
1750239659.6799622,1562
1750239659.6800761,1360
1750239659.680199,1255
1750239659.680365,1449
1750239659.6804726,1941
1750239659.6805797,2412
1750239659.682144,2580
1750239659.6824872,2432
1750239659.6825917,2126
1750239659.6827033,1831
1750239659.682806,1610
1750239659.682909,1410
1750239659.6830115,1272
1750239659.6832566,1403
1750239659.683361,1857
1750239659.6835551,2363
1750239659.6836603,2598
1750239659.6837645,2503
1750239659.683869,2209
1750239659.683972,1901
1750239659.6840746,1664
1750239659.6841776,1466
1750239659.684281,1305
1750239659.6843836,1377
1750239659.6844866,1778
1750239659.6845899,2297
1750239659.6846924,2590
1750239659.6847963,2550
1750239659.6848998,2274
1750239659.6850023,1951
1750239659.6851227,1688
1750239659.685255,1483
1750239659.68536,1307
1750239659.6854625,1329
1750239659.6855652,1679
1750239659.685667,2202
1750239659.6857698,2546
1750239659.6858714,2562
1750239659.6859734,2317
1750239659.6860757,1998
1750239659.686178,1725
1750239659.6862805,1517
1750239659.6863823,1327
1750239659.686486,1295
1750239659.6865885,1585
1750239659.6866903,2107
1750239659.7254846,2513
1750239659.727714,2597
1750239659.7277887,2389
1750239659.7278612,2067
1750239659.7279334,1773
1750239659.7280052,1556
1750239659.7280765,1363
1750239659.7281485,1295
1750239659.72822,1531
1750239659.7282915,2035
1750239659.7283669,2478
1750239659.7284384,2614
1750239659.7285097,2448
1750239659.7285914,2139
1750239659.728664,1839
1750239659.7287357,1613
1750239659.7288077,1415
1750239659.7288787,1308
1750239659.7289495,1482
1750239659.729021,1951
1750239659.7290928,2423
1750239659.729164,2614
1750239659.729235,2496
1750239659.7294958,2201
1750239659.729568,1894
1750239659.7296395,1655
1750239659.7297108,1453
1750239659.7297826,1310
1750239659.7298536,1410
1750239659.7299247,1815
1750239659.729996,2289
1750239659.730067,2529
1750239659.7301385,2466
1750239659.73021,2198
1750239659.730281,1885
1750239659.7303638,1619
1750239659.7304351,1402
1750239659.7305064,1242
1750239659.7305777,1326
1750239659.730649,1743
1750239659.7307205,2281
1750239659.7307916,2586
1750239659.7310777,2550
1750239659.7311397,2279
1750239659.7312038,1969
1750239659.7312753,1720
1750239659.7313867,1519
1750239659.7317958,1324
1750239659.771594,1308
1750239659.7953463,1633
1750239659.7959664,2170
1750239659.7963333,2548
1750239659.7964401,2586
1750239659.7966278,2343
1750239659.7987912,2022
1750239659.799129,1753
1750239659.799212,1548
1750239659.7992873,1344
1750239659.7998905,1272
1750239659.8104289,1522
1750239659.867119,2038
1750239659.8828611,2465
1750239659.8834393,2568
1750239659.8835492,2370
1750239659.8836672,2051
1750239659.8859339,1765
1750239659.8915217,1556
1750239659.9113414,1360
1750239659.9119065,1259
1750239659.911997,1454
1750239659.9120784,1942
1750239659.9121587,2405
1750239659.912239,2568
1750239659.9123201,2418
1750239659.9124002,2113
1750239659.9124806,1818
1750239659.912561,1599
1750239659.912641,1407
1750239659.9127214,1282
1750239659.9128022,1422
1750239659.9128823,1873
1750239659.9130144,2360
1750239659.9130955,2578
1750239659.9134543,2477
1750239659.9135358,2185
1750239659.9138758,1878
1750239659.913959,1637
1750239659.91404,1434
1750239659.9141207,1278
1750239659.914201,1365
1750239659.9142811,1779
1750239659.9143624,2293
1750239659.9144437,2569
1750239659.9145238,2514
1750239659.9146051,2236
1750239659.9146857,1925
1750239659.9147666,1678
1750239659.9148464,1478
1750239659.9152923,1300
1750239659.9161537,1324
1750239659.9226768,1679
1750239659.9232628,2203
1750239659.9261112,2537
1750239659.9262195,2540
1750239659.9263217,2288
1750239659.9264238,1974
1750239659.934108,1711
1750239659.9632523,1508
1750239659.9633298,1315
1750239659.9634006,1285
1750239659.9634602,1581
1750239659.963532,2105
1750239659.9639473,2497
1750239659.9640386,2562
1750239659.964111,2344
1750239659.964182,2030
1750239659.9642525,1753
1750239659.964332,1546
1750239659.9644027,1349
1750239660.0055656,1271
1750239660.0122347,1505
1750239660.021652,2013
1750239660.04147,2455
1750239660.0415986,2583
1750239660.0416725,2405
1750239660.0417452,2092
1750239660.0418184,1801
1750239660.0418987,1588
1750239660.0419722,1395
1750239660.042045,1285
1750239660.042117,1457
1750239660.0421855,1929
1750239660.042258,2403
1750239660.04233,2592
1750239660.0424998,2468
1750239660.0425763,2170
1750239660.0426488,1868
1750239660.0427213,1641
1750239660.042793,1449
1750239660.043138,1308
1750239660.0432174,1402
1750239660.043289,1791
1750239660.0433595,2250
1750239660.0434256,2483
1750239660.0434873,2424
1750239660.0435581,2163
1750239660.0436285,1853
1750239660.0436993,1591
1750239660.04377,1383
1750239660.043841,1240
1750239660.043911,1337
1750239660.0439813,1750
1750239660.0440516,2267
1750239660.0441225,2554
1750239660.0441928,2516
1750239660.0442638,2253
1750239660.0443342,1947
1750239660.044396,1694
1750239660.044465,1491
1750239660.0445359,1307
1750239660.0446064,1308
1750239660.0446777,1639
1750239660.0447483,2164
1750239660.0448186,2524
1750239660.044888,2556
1750239660.0449612,2323
1750239660.0450323,2015
1750239660.0451026,1751
1750239660.0451732,1546
1750239660.0452619,1346
1750239660.072019,1289
1750239660.1053588,1555
1750239660.1077878,2073
1750239660.1078684,2488
1750239660.1079416,2581
1750239660.1080494,2382
1750239660.1081207,2071
1750239660.1100786,1790
1750239660.1101646,1577
1750239660.1102371,1371
1750239660.1103084,1270
1750239660.110744,1473
1750239660.110892,1964
1750239660.1109693,2419
1750239660.1110342,2573
1750239660.1113145,2422
1750239660.11779,2122
1750239660.1179688,1831
1750239660.118101,1610
1750239660.1182208,1415
1750239660.1183393,1295
1750239660.1184573,1448
1750239660.1186275,1903
1750239660.1187458,2380
1750239660.1188636,2582
1750239660.118994,2472
1750239660.120696,2181
1750239660.1208107,1876
1750239660.120919,1634
1750239660.121028,1426
1750239660.121135,1270
1750239660.1212418,1365
1750239660.1220028,1787
1750239660.1221168,2301
1750239660.1222246,2567
1750239660.122332,2505
1750239660.122456,2228
1750239660.122567,1924
1750239660.122674,1682
1750239660.122782,1483
1750239660.1229014,1308
1750239660.1230097,1342
1750239660.1231167,1708
1750239660.123224,2234
1750239660.123345,2563
1750239660.1235416,2558
1750239660.1236582,2300
1750239660.1237776,1983
1750239660.1238854,1720
1750239660.123992,1520
1750239660.1240988,1331
1750239660.1242177,1295
1750239660.1270149,1565
1750239660.1272006,2047
1750239660.1273062,2411
1750239660.127495,2481
1750239660.1276069,2289
1750239660.1277108,1990
1750239660.1278136,1701
1750239660.1725163,1475
1750239660.1928306,1285
1750239660.1929133,1250
1750239660.19299,1531
1750239660.1930652,2056
1750239660.1937964,2486
1750239660.1938841,2596
1750239660.193987,2411
1750239660.194063,2095
1750239660.1941383,1799
1750239660.1942134,1584
1750239660.1942878,1396
1750239660.194362,1290
1750239660.1944404,1446
1750239660.194516,1875
1750239660.1945915,2306
1750239660.1946635,2486
1750239660.194735,2384
1750239660.194807,2111
1750239660.1948793,1806
1750239660.1949515,1553
1750239660.195026,1346
1750239660.1950974,1234
1750239660.195157,1397
1750239660.19843,1861
1750239660.2029262,2360
1750239660.2063813,2590
1750239660.2064993,2506
1750239660.2072287,2222
1750239660.2074814,1908
1750239660.207588,1653
1750239660.2076914,1445
1750239660.2077956,1278
1750239660.2078996,1330
1750239660.2080033,1689
1750239660.2081065,2167
1750239660.2082148,2451
1750239660.2083185,2441
1750239660.2084224,2207
1750239660.2085261,1907
1750239660.208645,1638
1750239660.2087488,1424
1750239660.208852,1259
1750239660.2089553,1308
1750239660.225859,1682
1750239660.2785807,2216
1750239660.279834,2561
1750239660.2815366,2576
1750239660.2830906,2335
1750239660.2838948,2021
1750239660.2924857,1748
1750239660.3375683,1536
1750239660.3376691,1342
1750239660.3377607,1298
1750239660.3378508,1568
1750239660.3379505,2073
1750239660.33804,2474
1750239660.3381298,2568
1750239660.3382194,2382
1750239660.3419116,2078
1750239660.359274,1788
1750239660.4352655,1563
1750239660.4375772,1362
1750239660.4376612,1284
1750239660.4380503,1506
1750239660.4610336,1999
1750239660.521015,2440
1750239660.5292928,2586
1750239660.529373,2434
1750239660.5294483,2133
1750239660.5295234,1834
1750239660.5295982,1608
1750239660.5324864,1416
1750239660.532647,1303
1750239660.5327933,1453
1750239660.5329397,1890
1750239660.5350084,2344
1750239660.5352874,2542
1750239660.535541,2445
1750239660.5356941,2164
1750239660.5358407,1855
1750239660.5359867,1603
1750239660.5361342,1397
1750239660.53628,1264
1750239660.5364246,1392
1750239660.5365832,1836
1750239660.5367289,2351
1750239660.5368748,2610
1750239660.5370197,2541
1750239660.5371656,2263
1750239660.5373116,1957
1750239660.5387645,1711
1750239660.539778,1505
1750239660.5399013,1325
1750239660.5400205,1358
1750239660.540139,1728
1750239660.5402575,2253
1750239660.5403757,2575
1750239660.5405016,2568
1750239660.54062,2319
1750239660.5407376,2016
1750239660.540855,1757
1750239660.5409734,1541
1750239660.541091,1338
1750239660.5412087,1321
1750239660.5413265,1649
1750239660.5414457,2191
1750239660.5415645,2570
1750239660.5416825,2606
1750239660.5418005,2373
1750239660.5420861,2067
1750239660.5422497,1806
1750239660.54243,1600
1750239660.5425656,1389
1750239660.542724,1305
1750239660.5428457,1544
1750239660.5429783,2052
1750239660.5432186,2482
1750239660.5433784,2596
1750239660.5435736,2414
1750239660.5437045,2108
1750239660.543844,1823
1750239660.5439532,1608
1750239660.5440896,1408
1750239660.5442,1303
1750239660.5442812,1490
1750239660.5443635,1969
1750239660.54445,2432
1750239660.5445354,2606
1750239660.5446293,2471
1750239660.5447235,2172
1750239660.5448172,1872
1750239660.5449069,1645
1750239660.544989,1451
1750239660.5450752,1327
1750239660.545165,1469
1750239660.5453117,1921
1750239660.5454009,2417
1750239660.545484,2643
1750239660.5455663,2547
1750239660.5456438,2257
1750239660.5457413,1950
1750239660.5458229,1708
1750239660.545914,1501
1750239660.546005,1332
1750239660.5460951,1400
1750239660.5461972,1804
1750239660.5462928,2326
1750239660.5463786,2615
1750239660.5464716,2568
1750239660.5465655,2291
1750239660.5466685,1980
1750239660.5467463,1729
1750239660.5468256,1521
1750239660.5469089,1321
1750239660.5469935,1314
1750239660.5471966,1650
1750239660.5472865,2178
1750239660.5473595,2531
1750239660.547556,2546
1750239660.5476465,2295
1750239660.5477493,1977
1750239660.5478294,1712
1750239660.5479076,1509
1750239660.5480156,1311
1750239660.5481014,1263
1750239660.5481894,1540
1750239660.5482733,2060
1750239660.548369,2464
1750239660.5484734,2541
1750239660.5485842,2328
1750239660.549891,2009
1750239660.6134636,1730
1750239660.6651185,1527
1750239660.665695,1339
1750239660.6658134,1261
1750239660.6658833,1482
1750239660.6659515,1978
1750239660.6660185,2421
1750239660.6660855,2559
1750239660.6661503,2393
1750239660.6662178,2084
1750239660.6662858,1788
1750239660.666368,1567
1750239660.6664383,1370
1750239660.666508,1252
1750239660.6665778,1411
1750239660.6666484,1875
1750239660.6667185,2355
1750239660.6667888,2557
1750239660.666877,2443
1750239660.6766129,2148
1750239660.6774225,1843
1750239660.677528,1607
1750239660.6776304,1409
1750239660.677734,1267
1750239660.7096734,1374
1750239660.7472975,1799
1750239660.7696059,2302
1750239660.7850738,2557
1750239660.7851613,2492
1750239660.7852511,2217
1750239660.7853236,1913
1750239660.7853947,1669
1750239660.7854662,1470
1750239660.7855375,1302
1750239660.785609,1351
1750239660.7856803,1728
1750239660.7857516,2252
1750239660.7858226,2573
1750239660.785894,2568
1750239660.785965,2316
1750239660.7860363,2003
1750239660.7861085,1736
1750239660.7861843,1528
1750239660.7862594,1344
1750239660.7863314,1346
1750239660.7864034,1675
1750239660.7864745,2199
1750239660.786546,2561
1750239660.786617,2594
1750239660.7866886,2364
1750239660.7867594,2056
1750239660.7868314,1788
1750239660.7869027,1575
1750239660.786974,1366
1750239660.787045,1295
1750239660.7871108,1549
1750239660.78717,2064
1750239660.787239,2486
1750239660.787312,2588
1750239660.7873838,2399
1750239660.7874453,2093
1750239660.7875118,1811
1750239660.787584,1594
1750239660.7876554,1387
1750239660.7877264,1282
1750239660.7878237,1480
1750239660.7878947,1970
1750239660.7879655,2427
1750239660.7880368,2579
1750239660.7881079,2426
1750239660.7881792,2130
1750239660.7882504,1848
1750239660.7883213,1630
1750239660.7883923,1423
1750239660.7884634,1277
1750239660.7885346,1409
1750239660.7890346,1865
1750239660.8014338,2362
1750239660.8111324,2575
1750239660.8112476,2461
1750239660.812149,2166
1750239660.8123245,1874
1750239660.8127756,1651
1750239660.8128815,1450
1750239660.8129854,1275
1750239660.8335114,1342
1750239660.833608,1757
1750239660.8337004,2290
1750239660.834264,2577
1750239660.8377953,2518
1750239660.837877,2233
1750239660.8379552,1927
1750239660.8380244,1695
1750239660.838101,1504
1750239660.8381984,1316
1750239660.8382769,1318
1750239660.838346,1660
1750239660.8384202,2189
1750239660.838492,2536
1750239660.8389525,2544
1750239660.839073,2293
1750239660.8391423,1985
1750239660.8392117,1733
1750239660.8392782,1538
1750239660.8393438,1343
1750239660.8394053,1301
1750239660.8394706,1587
1750239660.8395379,2110
1750239660.845499,2505
1750239660.8756895,2565
1750239660.898036,2340
1750239660.8981245,2023
1750239660.8981996,1751
1750239660.9055235,1550
1750239660.9056022,1353
1750239660.9067767,1267
1750239660.9357302,1490
1750239660.9464262,1991
1750239660.9469113,2435
1750239660.9469886,2569
1750239660.9470584,2398
1750239660.9471188,2090
1750239660.9471881,1800
1750239660.9472601,1588
1750239660.9473321,1398
1750239660.9473996,1287
1750239660.9474719,1447
1750239660.9475415,1898
1750239660.9476132,2353
1750239660.9476845,2536
1750239660.9477568,2422
1750239660.9478283,2137
1750239660.9478989,1836
1750239660.9479692,1595
1750239660.9482222,1386
1750239660.9482923,1246
1750239660.9483628,1371
1750239660.9484339,1814
1750239660.9485042,2319
1750239660.9485922,2562
1750239660.9509056,2481
1750239660.9509819,2196
1750239660.9510536,1889
1750239660.951115,1647
1750239660.9511762,1446
1750239660.9512467,1274
1750239660.951317,1319
1750239660.9513876,1693
1750239660.9514635,2207
1750239660.951534,2516
1750239660.9516041,2501
1750239660.951675,2248
1750239660.9517443,1942
1750239660.9518144,1688
1750239660.9518971,1487
1750239660.9527755,1305
1750239660.952887,1304
1750239660.9529953,1630
1750239660.9531016,2153
1750239660.9532087,2517
1750239660.953281,2553
1750239660.953356,2325
1750239660.9534297,2017
1750239660.953505,1750
1750239660.9535775,1542
1750239660.9536495,1339
1750239660.9537234,1279
1750239660.9537947,1543
1750239660.9538665,2062
1750239660.9539387,2481
1750239660.954011,2576
1750239660.954156,2379
1750239660.9542317,2073
1750239660.9543037,1801
1750239660.9543753,1600
1750239660.954447,1407
1750239660.954519,1313
1750239660.9545908,1523
1750239660.9546623,2027
1750239660.9547338,2493
1750239660.954806,2645
1750239660.9548774,2481
1750239660.9549491,2169
1750239660.955021,1876
1750239660.955093,1654
1750239660.9551644,1441
1750239660.9552524,1287
1750239660.9553292,1413
1750239660.9886954,1870
1750239660.9888413,2370
1750239661.0183966,2586
1750239661.0502114,2471
1750239661.064136,2171
1750239661.0674913,1875
1750239661.1087952,1655
1750239661.1092978,1461
1750239661.1095085,1293
1750239661.1108255,1361
1750239661.1113365,1765
1750239661.1129115,2277
1750239661.1131177,2547
1750239661.1133184,2482
1750239661.1199431,2200
1750239661.120152,1897
1750239661.1206841,1659
1750239661.1244788,1461
1750239661.1246958,1278
1750239661.1255732,1297
1750239661.1258042,1656
1750239661.1261995,2186
1750239661.1274638,2523
1750239661.1276054,2525
1750239661.1277366,2275
1750239661.1278691,1966
1750239661.1280005,1709
1750239661.128479,1511
1750239661.1286232,1322
1750239661.1288414,1284
1750239661.1296747,1558
1750239661.130942,2048
1750239661.1316366,2416
1750239661.1317542,2483
1750239661.1318274,2288
1750239661.1319091,1993
1750239661.1319778,1715
1750239661.132044,1498
1750239661.132111,1305
1750239661.1321795,1253
1750239661.1322467,1519
1750239661.1323142,2040
1750239661.1323795,2472
1750239661.1324453,2581
1750239661.1325126,2395
1750239661.1325788,2091
1750239661.1326463,1815
1750239661.1327124,1607
1750239661.1327813,1403
1750239661.1328468,1277
1750239661.132913,1441
1750239661.1329787,1916
1750239661.133044,2396
1750239661.13311,2585
1750239661.133176,2455
1750239661.1332424,2158
1750239661.1333086,1867
1750239661.1333745,1643
1750239661.133441,1436
1750239661.1335075,1275
1750239661.1335735,1377
1750239661.13364,1814
1750239661.1337056,2327
1750239661.1337717,2576
1750239661.133837,2491
1750239661.1339045,2199
1750239661.133971,1893
1750239661.1340375,1658
1750239661.1604838,1457
1750239661.16062,1279
1750239661.1607258,1326
1750239661.1608806,1714
1750239661.1609843,2246
1750239661.1743484,2560
1750239661.1744576,2532
1750239661.174562,2264
1750239661.1746662,1957
1750239661.17477,1711
1750239661.1748774,1512
1750239661.1750112,1319
1750239661.1752841,1314
1750239661.175481,1659
1750239661.1755946,2212
1750239661.1757631,2589
1750239661.1758683,2610
1750239661.1759715,2352
1750239661.1760738,2028
1750239661.1761763,1768
1750239661.1762786,1572
1750239661.1763809,1369
1750239661.1764832,1299
1750239661.1765854,1560
1750239661.176687,2087
1750239661.1767893,2516
1750239661.1768913,2610
1750239661.1769931,2400
1750239661.1770947,2082
1750239661.1771967,1806
1750239661.1772988,1601
1750239661.1774006,1397
1750239661.177502,1286
1750239661.1776097,1478
1750239661.1777112,1969
1750239661.1778133,2431
1750239661.2243667,2587
1750239661.2248328,2429
1750239661.2263258,2122
1750239661.2283142,1830
1750239661.2284393,1615
1750239661.2285702,1418
1750239661.22871,1284
1750239661.2288287,1422
1750239661.2318587,1875
1750239661.2320352,2363
1750239661.2321563,2575
1750239661.2322907,2464
1750239661.2324092,2165
1750239661.2325273,1860
1750239661.232678,1630
1750239661.2332385,1436
1750239661.2333837,1282
1750239661.2335181,1367
1750239661.2336373,1779
1750239661.233756,2290
1750239661.2339,2559
1750239661.2340314,2495
1750239661.2341518,2212
1750239661.2342691,1904
1750239661.2343976,1666
1750239661.2345173,1477
1750239661.2346516,1307
1750239661.2347686,1339
1750239661.2348645,1703
1750239661.2349455,2231
1750239661.2350256,2567
1750239661.2351017,2568
1750239661.2351704,2312
1750239661.2359822,1993
1750239661.2360668,1724
1750239661.2362564,1515
1750239661.2363696,1320
1750239661.238239,1294
1750239661.238617,1599
1750239661.2403572,2129
1750239661.2521083,2522
1750239661.3601382,2588
1750239661.3992913,2370
1750239661.4008434,2053
1750239661.4009678,1773
1750239661.4021547,1562
1750239661.4022763,1364
1750239661.4023957,1293
1750239661.4025285,1531
1750239661.402647,2032
1750239661.4027655,2459
1750239661.402885,2575
1750239661.4034111,2396
1750239661.4035716,2086
1750239661.4039261,1794
1750239661.404668,1572
1750239661.4047782,1368
1750239661.4051926,1258
1750239661.453495,1443
1750239661.4905963,1926
1750239661.4909112,2398
1750239661.4911718,2574
1750239661.4914353,2437
1750239661.4924688,2138
1750239661.4928157,1845
1750239661.4930906,1621
1750239661.4995842,1417
1750239661.5122585,1267
1750239661.5127828,1380
1750239661.5132847,1818
1750239661.5137837,2317
1750239661.5155046,2552
1750239661.516348,2459
1750239661.518884,2166
1750239661.5191638,1860
1750239661.5192697,1624
1750239661.5195475,1430
1750239661.519666,1269
1750239661.5198908,1336
1750239661.5199978,1735
1750239661.520103,2258
1750239661.5202065,2554
1750239661.5218637,2518
1750239661.5230076,2249
1750239661.5230832,1940
1750239661.523157,1686
1750239661.5232296,1479
1750239661.5235798,1285
1750239661.5291424,1283
1750239661.529234,1618
1750239661.5293143,2147
1750239661.5293946,2506
1750239661.529473,2533
1750239661.5295548,2293
1750239661.5296328,1975
1750239661.5297108,1704
1750239661.5297885,1505
1750239661.5298667,1325
1750239661.5299437,1285
1750239661.530022,1541
1750239661.530101,2021
1750239661.5301785,2403
1750239661.5302572,2499
1750239661.5386662,2329
1750239661.5502005,2035
1750239661.5505934,1741
1750239661.5506766,1509
1750239661.550752,1318
1750239661.550858,1260
1750239661.550926,1494
1750239661.5509896,1974
1750239661.5510492,2389
1750239661.5511158,2517
1750239661.551183,2369
1750239661.551251,2081
1750239661.5513158,1786
1750239661.5513754,1554
1750239661.551441,1355
1750239661.5515077,1249
1750239661.551575,1415
1750239661.5516417,1870
1750239661.551708,2335
1750239661.5517735,2532
1750239661.5518398,2427
1750239661.5519173,2141
1750239661.5519834,1834
1750239661.5520499,1587
1750239661.5521162,1382
1750239661.5521824,1241
1750239661.5522492,1352
1750239661.5523162,1780
1750239661.5523825,2285
1750239661.552449,2546
1750239661.5525148,2488
1750239661.552581,2218
1750239661.5526474,1913
1750239661.5527136,1663
1750239661.5527804,1455
1750239661.552847,1274
1750239661.5529132,1303
1750239661.5529792,1659
1750239661.5530453,2170
1750239661.5531113,2489
1750239661.5531871,2489
1750239661.5532534,2243
1750239661.5533223,1934
1750239661.5533926,1670
1750239661.5534632,1467
1750239661.5535343,1286
1750239661.5536048,1278
1750239661.5536747,1592
1750239661.5537457,2114
1750239661.5538163,2492
1750239661.5538871,2548
1750239661.5539577,2329
1750239661.5540285,2013
1750239661.5540996,1730
1750239661.5541706,1517
1750239661.5542414,1327
1750239661.5543115,1275
1750239661.5543818,1535
1750239661.5544555,2049
1750239661.5545306,2477
1750239661.5546048,2591
1750239661.5546772,2408
1750239661.5547507,2096
1750239661.5548205,1806
1750239661.554891,1592
1750239661.5549614,1398
1750239661.5550315,1291
1750239661.5551114,1459
1750239661.5551817,1913
1750239661.5554278,2365
1750239661.5555031,2549
1750239661.5556393,2434
1750239661.5557122,2142
1750239661.5557845,1830
1750239661.5558581,1588
1750239661.5688853,1393
1750239661.6149926,1278
1750239661.6152604,1419
1750239661.6154068,1855
1750239661.6155488,2336
1750239661.6156895,2565
1750239661.6158295,2489
1750239661.6160452,2211
1750239661.616187,1898
1750239661.6163895,1645
1750239661.617436,1444
1750239661.6176145,1296
1750239661.6202612,1384
1750239661.6204023,1790
1750239661.620541,2303
1750239661.6206796,2588
1750239661.620835,2547
1750239661.620975,2279
1750239661.6538706,1969
1750239661.653984,1713
1750239661.6807237,1502
1750239661.6808348,1308
1750239661.680938,1310
1750239661.681048,1651
1750239661.681151,2180
1750239661.6969516,2534
1750239661.742828,2553
1750239661.7873511,2309
1750239661.7877192,2000
1750239661.7878149,1741
1750239661.789353,1544
1750239661.7894378,1353
1750239661.7895114,1312
1750239661.7895834,1597
1750239661.7970202,2121
1750239661.7971218,2529
1750239661.7971954,2609
1750239661.807723,2403
1750239661.8139002,2090
1750239661.8139777,1810
1750239661.8140497,1598
1750239661.8141215,1396
1750239661.8141937,1309
1750239661.8142653,1530
1750239661.8143365,2033
1750239661.8144073,2483
1750239661.8144808,2623
1750239661.814552,2457
1750239661.814624,2150
1750239661.8147054,1860
1750239661.814777,1644
1750239661.8148477,1446
1750239661.8149188,1320
1750239661.8149896,1469
1750239661.8150613,1925
1750239661.8151321,2399
1750239661.8152037,2597
1750239661.815289,2479
1750239661.815361,2183
1750239661.8154328,1881
1750239661.8155046,1651
1750239661.8155763,1454
1750239661.8156476,1306
1750239661.815719,1404
1750239661.8157902,1823
1750239661.815861,2325
1750239661.8159318,2579
1750239661.8160036,2509
1750239661.8160748,2230
1750239661.8161464,1926
1750239661.8162172,1688
1750239661.8162885,1491
1750239661.8163598,1317
1750239661.8164308,1354
1750239661.816502,1722
1750239661.8165731,2241
1750239661.8166535,2558
1750239661.8167248,2543
1750239661.8167958,2284
1750239661.8168678,1971
1750239661.816939,1715
1750239661.8170104,1517
1750239661.817082,1331
1750239661.8171527,1316
1750239661.817224,1629
1750239661.8172953,2150
1750239661.8173664,2522
1750239661.8174376,2567
1750239661.8175123,2340
1750239661.8175836,2028
1750239661.8176615,1759
1750239661.8177328,1557
1750239661.8178043,1364
1750239661.8178759,1302
1750239661.8179471,1551
1750239661.8180187,2055
1750239661.8180897,2472
1750239661.818161,2577
1750239661.818232,2393
1750239661.8183036,2089
1750239661.8183749,1809
1750239661.8184462,1598
1750239661.8185172,1400
1750239661.8485563,1294
1750239661.879825,1483
1750239661.8814166,1966
1750239661.9074614,2429
1750239661.907577,2595
1750239661.9076836,2448
1750239661.9077888,2144
1750239661.9078937,1849
1750239661.9079993,1630
1750239661.9081044,1435
1750239661.9082093,1298
1750239661.9083142,1420
1750239661.9084194,1859
1750239661.9085243,2351
1750239661.908641,2579
1750239661.9087458,2486
1750239661.9088502,2197
1750239661.9089546,1894
1750239661.909064,1661
1750239661.9091678,1466
1750239661.9092717,1305
1750239661.909376,1372
1750239661.9094803,1766
1750239661.9153557,2281
1750239661.9172065,2569
1750239661.9221394,2528
1750239661.9239337,2256
1750239661.9240777,1946
1750239661.9426284,1701
1750239661.9427383,1506
1750239661.9532197,1322
1750239661.9808412,1325
1750239661.9999955,1655
1750239662.0001101,2171
1750239662.0002155,2513
1750239662.0003197,2528
1750239662.000761,2282
1750239662.0008686,1970
1750239662.0009732,1711
1750239662.0010774,1518
1750239662.0011804,1336
1750239662.0012834,1300
1750239662.0013871,1581
1750239662.0015001,2094
1750239662.0016153,2490
1750239662.0017188,2565
1750239662.001825,2356
1750239662.001941,2044
1750239662.0020447,1765
1750239662.0021477,1559
1750239662.0022502,1368
1750239662.002353,1290
1750239662.0024378,1514
1750239662.0025134,2009
1750239662.0025878,2447
1750239662.0026622,2581
1750239662.0027363,2416
1750239662.0028114,2113
1750239662.002887,1826
1750239662.0029619,1612
1750239662.0030372,1415
1750239662.0031004,1294
1750239662.0031652,1453
1750239662.0032396,1915
1750239662.0033138,2387
1750239662.0033846,2577
1750239662.003451,2454
1750239662.0035253,2162
1750239662.0035994,1872
1750239662.0036738,1650
1750239662.003748,1450
1750239662.003822,1293
1750239662.0038962,1389
1750239662.0041673,1817
1750239662.004242,2327
1750239662.0043163,2580
1750239662.0043912,2501
1750239662.0044656,2214
1750239662.0045404,1912
1750239662.0046144,1683
1750239662.004689,1493
1750239662.0047631,1317
1750239662.0048375,1346
1750239662.0049117,1708
1750239662.0049863,2222
1750239662.0050607,2535
1750239662.0051355,2521
1750239662.0052102,2268
1750239662.0265017,1967
1750239662.0266206,1721
1750239662.026729,1526
1750239662.0268528,1337
1750239662.0269613,1318
1750239662.027075,1626
1750239662.0271826,2139
1750239662.027304,2499
1750239662.0274124,2533
1750239662.0275204,2304
1750239662.0279007,2000
1750239662.0280929,1744
1750239662.0284524,1553
1750239662.028598,1365
1750239662.0287192,1305
1750239662.0288384,1556
1750239662.0289574,2058
1750239662.0290844,2467
1750239662.0292037,2560
1750239662.029323,2363
1750239662.0294418,2055
1750239662.0295608,1779
1750239662.0296795,1577
1750239662.0297985,1387
1750239662.029917,1289
1750239662.0300357,1481
1750239662.0301545,1961
1750239662.0302742,2413
1750239662.0310364,2569
1750239662.0311172,2420
1750239662.031198,2125
1750239662.0320625,1842
1750239662.0812118,1627
1750239662.0813236,1426
1750239662.0814292,1281
1750239662.0815327,1405
1750239662.081637,1849
1750239662.0817406,2341
1750239662.0818446,2563
1750239662.081961,2463
1750239662.082075,2175
1750239662.0821786,1877
1750239662.0822818,1649
1750239662.0823846,1456
1750239662.0824876,1297
1750239662.082591,1369
1750239662.082694,1766
1750239662.082797,2270
1750239662.0829,2541
1750239662.0830033,2488
1750239662.083213,2220
1750239662.0833158,1921
1750239662.084731,1685
1750239662.084842,1492
1750239662.0849466,1313
1750239662.0850503,1325
1750239662.0851533,1667
1750239662.085288,2185
1750239662.0853915,2523
1750239662.0854952,2534
1750239662.0855985,2291
1750239662.0857017,1984
1750239662.0858047,1724
1750239662.085908,1520
1750239662.08602,1326
1750239662.0861225,1288
1750239662.0862248,1578
1750239662.0863285,2101
1750239662.0864315,2494
1750239662.0865338,2556
1750239662.0866368,2336
1750239662.0869033,2025
1750239662.0870116,1756
1750239662.0872653,1557
1750239662.0874496,1365
1750239662.0875533,1283
1750239662.0901022,1507
1750239662.091536,2006
1750239662.0916429,2445
1750239662.091747,2572
1750239662.175195,2397
1750239662.1752834,2088
1750239662.1837099,1800
1750239662.1838162,1588
1750239662.1838877,1395
1750239662.183959,1274
1750239662.1840296,1423
1750239662.1841004,1865
1750239662.1841705,2322
1750239662.184241,2514
1750239662.1843176,2409
1750239662.184388,2129
1750239662.1844585,1831
1750239662.1845284,1591
1750239662.1845987,1389
1750239662.1846683,1255
1750239662.214147,1380
1750239662.2680943,1817
1750239662.2820046,2317
1750239662.3139648,2563
1750239662.314189,2493
1750239662.3430989,2219
1750239662.344033,1917
1750239662.3441305,1678
1750239662.3444853,1488
1750239662.3531303,1324
1750239662.363911,1359
1750239662.4062583,1698
1750239662.4520686,2174
1750239662.4524157,2466
1750239662.4528885,2462
1750239662.4531932,2228
1750239662.4599922,1928
1750239662.4630098,1666
1750239662.4694667,1461
1750239662.4707239,1291
1750239662.4715996,1316
1750239662.47246,1668
1750239662.4784257,2208
1750239662.4792736,2574
1750239662.5187588,2601
1750239662.5189388,2358
1750239662.5190935,2042
1750239662.5192542,1776
1750239662.5194092,1573
1750239662.5195272,1372
1750239662.5196357,1302
1750239662.519744,1559
1750239662.5198524,2082
1750239662.5199604,2515
1750239662.5200684,2621
1750239662.520176,2424
1750239662.520284,2110
1750239662.5203915,1834
1750239662.5205,1630
1750239662.5206115,1429
1750239662.5207198,1314
1750239662.5208282,1496
1750239662.5209358,1980
1750239662.5211196,2447
1750239662.5212314,2613
1750239662.5213397,2463
1750239662.5214467,2155
1750239662.5215547,1859
1750239662.521662,1639
1750239662.5217693,1441
1750239662.5218766,1304
1750239662.5219924,1434
1750239662.5221002,1881
1750239662.522208,2375
1750239662.522316,2599
1750239662.522424,2499
1750239662.5225422,2204
1750239662.52265,1898
1750239662.5227575,1663
1750239662.5228653,1467
1750239662.5229733,1308
1750239662.5230699,1383
1750239662.5231724,1784
1750239662.5232801,2295
1750239662.5233834,2573
1750239662.5234942,2523
1750239662.5241091,2249
1750239662.5582974,1941
1750239662.561737,1694
1750239662.6172376,1493
1750239662.6189442,1310
1750239662.6192625,1325
1750239662.6195865,1673
1750239662.6199157,2195
1750239662.620246,2529
1750239662.658934,2531
1750239662.7047548,2279
1750239662.7110696,1968
1750239662.7114115,1710
1750239662.7117352,1510
1750239662.7120948,1318
1750239662.712424,1283
1750239662.7127554,1576
1750239662.713086,2101
1750239662.7134013,2497
1750239662.713732,2562
1750239662.7250028,2345
1750239662.7257154,2031
1750239662.7458467,1756
1750239662.798223,1550
1750239662.798338,1351
1750239662.798444,1268
1750239662.7985578,1496
1750239662.7986643,2000
1750239662.7987695,2439
1750239662.798874,2562
1750239662.7989783,2382
1750239662.7990825,2071
1750239662.799187,1788
1750239662.7992911,1582
1750239662.7994957,1389
1750239662.7996006,1272
1750239662.7997048,1438
1750239662.7998087,1912
1750239662.8237958,2391
1750239662.8389862,2578
1750239662.8391974,2443
1750239662.8393075,2137
1750239662.8394947,1837
1750239662.8396137,1613
1750239662.8397226,1414
1750239662.839831,1261
1750239662.8399396,1362
1750239662.8400483,1792
1750239662.8401563,2303
1750239662.8402662,2561
1750239662.8403778,2488
1750239662.8404863,2200
1750239662.840595,1889
1750239662.8475904,1649
1750239662.8478715,1455
1750239662.8520525,1291
1750239662.8715022,1342
1750239662.871701,1723
1750239662.8717756,2243
1750239662.8827631,2553
1750239662.9040587,2531
1750239662.9042563,2270
1750239662.910174,1963
1750239662.9103005,1715
1750239662.9104106,1520
1750239662.9105518,1335
1750239662.9106648,1329
1750239662.9107745,1657
1750239662.910912,2188
1750239662.9110277,2555
1750239662.9111383,2581
1750239662.9112477,2333
1750239662.9113781,2012
1750239662.9114878,1748
1750239662.911596,1550
1750239662.9117045,1350
1750239662.9118297,1279
1750239662.9119632,1530
1750239662.9120717,2044
1750239662.912294,2464
1750239662.9123776,2560
1750239662.9124608,2357
1750239662.9125445,2042
1750239662.9126272,1765
1750239662.9127104,1565
1750239662.9127953,1373
1750239662.9128788,1275
1750239662.9129615,1477
1750239662.9130442,1971
1750239662.9131272,2430
1750239662.9132097,2578
1750239662.9142642,2411
1750239662.914355,2094
1750239662.915818,1798
1750239662.9159102,1583
1750239662.9159935,1388
1750239662.9160757,1253
1750239662.918641,1389
1750239662.9187434,1843
1750239662.9188097,2337
1750239662.9188752,2560
1750239662.9189448,2459
1750239662.9451382,2168
1750239663.0436654,1867
1750239663.0575094,1636
1750239663.057638,1438
1750239663.0577571,1279
1750239663.0578752,1361
1750239663.057994,1772
1750239663.0581555,2286
1750239663.063432,2560
1750239663.0636132,2503
1750239663.0640705,2225
1750239663.0644507,1921
1750239663.0655577,1686
1750239663.066705,1497
1750239663.0676146,1323
1750239663.0692794,1347
1750239663.0693982,1705
1750239663.0695148,2237
1750239663.0697594,2577
1750239663.0700524,2578
1750239663.0731952,2320
1750239663.0733175,2002
1750239663.0734448,1743
1750239663.0735676,1544
1750239663.0737097,1351
1750239663.0738294,1315
1750239663.073947,1607
1750239663.074083,2130
1750239663.074204,2520
1750239663.0743408,2577
1750239663.0744643,2348
1750239663.0746315,2026
1750239663.0747359,1750
1750239663.074848,1547
1750239663.0749521,1352
1750239663.0750604,1272
1750239663.075165,1502
1750239663.0752845,2004
1750239663.0753891,2438
1750239663.0755434,2559
1750239663.0756505,2379
1750239663.0765567,2068
1750239663.076678,1781
1750239663.0767834,1567
1750239663.07808,1367
1750239663.078184,1252
1750239663.0782874,1425
1750239663.0783904,1900
1750239663.0807278,2371
1750239663.0993538,2546
1750239663.0994666,2406
1750239663.0995362,2104
1750239663.1005223,1811
1750239663.100602,1591
1750239663.1014042,1393
1750239663.1025715,1247
1750239663.1033158,1364
1750239663.143257,1808
1750239663.1434104,2316
1750239663.1435506,2557
1750239663.175228,2468
1750239663.1969993,2179
1750239663.19712,1878
1750239663.1972294,1646
1750239663.202049,1448
1750239663.2021878,1273
1750239663.2023737,1323
1750239663.2024527,1710
1750239663.2025306,2233
1750239663.2026083,2536
1750239663.2027073,2504
1750239663.2029278,2237
1750239663.2030077,1930
1750239663.203088,1685
1750239663.2031677,1494
1750239663.2032475,1319
1750239663.203327,1334
1750239663.2033918,1681
1750239663.2034638,2218
1750239663.203543,2577
1750239663.2036226,2597
1750239663.203702,2353
1750239663.2037783,2040
1750239663.203853,1776
1750239663.2039268,1567
1750239663.2040007,1361
1750239663.204075,1305
1750239663.2041495,1585
1750239663.2042234,2116
1750239663.2043693,2533
1750239663.2044451,2613
1750239663.20452,2400
1750239663.204594,2087
1750239663.2046688,1812
1750239663.2047436,1600
1750239663.204825,1385
1750239663.204899,1274
1750239663.204973,1479
1750239663.2050471,1983
1750239663.205121,2447
1750239663.2051952,2593
1750239663.2201982,2424
1750239663.2211134,2113
1750239663.2212472,1824
1750239663.2213767,1611
1750239663.2215059,1411
1750239663.2216356,1278
1750239663.2217638,1426
1750239663.2219124,1893
1750239663.2220433,2386
1750239663.2221723,2594
1750239663.2223,2476
1750239663.222428,2179
1750239663.2225695,1883
1750239663.2226982,1658
1750239663.222826,1458
1750239663.2229543,1291
1750239663.223231,1367
1750239663.2234411,1777
1750239663.2235847,2288
1750239663.223713,2555
1750239663.2238414,2490
1750239663.2239845,2206
1750239663.2241132,1900
1750239663.2242413,1662
1750239663.2243829,1469
1750239663.2245176,1293
1750239663.2246459,1321
1750239663.2247863,1685
1750239663.2249157,2212
1750239663.225044,2539
1750239663.2251723,2530
1750239663.2253213,2270
1750239663.2254496,1958
1750239663.225577,1705
1750239663.225718,1506
1750239663.225847,1311
1750239663.225975,1277
1750239663.2261145,1571
1750239663.2262435,2089
1750239663.2263713,2469
1750239663.2265053,2519
1750239663.2271357,2294
1750239663.2272453,1983
1750239663.2274377,1719
1750239663.2275462,1525
1750239663.2276533,1336
1750239663.2277606,1265
1750239663.2278802,1503
1750239663.2279878,2005
1750239663.2282975,2433
1750239663.2284071,2549
1750239663.228519,2365
1750239663.2617834,2053
1750239663.2630713,1764
1750239663.2631412,1552
1750239663.2632194,1358
1750239663.263317,1255
1750239663.263393,1440
1750239663.2634604,1921
1750239663.2636378,2392
1750239663.2637146,2569
1750239663.263819,2431
1750239663.2638884,2124
1750239663.2639635,1822
1750239663.2640393,1599
1750239663.264115,1411
1750239663.2716954,1283
1750239663.3303206,1410
1750239663.3391,1849
1750239663.3392093,2345
1750239663.339726,2586
1750239663.3831596,2506
1750239663.3838775,2220
1750239663.3935506,1908
1750239663.394139,1661
1750239663.3945014,1456
1750239663.3948529,1291
1750239663.3951793,1357
1750239663.3955395,1751
1750239663.3959117,2268
1750239663.3994176,2563
1750239663.4049337,2529
1750239663.4053583,2261
1750239663.4056916,1948
1750239663.4060225,1691
1750239663.4063535,1483
1750239663.406684,1294
1750239663.4070132,1298
1750239663.4073434,1636
1750239663.4076686,2161
1750239663.4080007,2509
1750239663.408331,2525
1750239663.4253361,2282
1750239663.4254563,1970
1750239663.4255495,1709
1750239663.4256415,1509
1750239663.425733,1318
1750239663.4258242,1277
1750239663.4259157,1559
1750239663.4260077,2077
1750239663.426099,2476
1750239663.4261901,2552
1750239663.426281,2345
1750239663.4263718,2035
1750239663.4264631,1756
1750239663.4265544,1545
1750239663.4266458,1346
1750239663.4267364,1261
1750239663.4268255,1481
1750239663.4269142,1979
1750239663.4270108,2423
1750239663.42709,2561
1750239663.4271765,2397
1750239663.427266,2093
1750239663.4288383,1804
1750239663.4294863,1585
1750239663.4296565,1386
1750239663.4297907,1262
1750239663.4299097,1415
1750239663.4299996,1873
1750239663.4300892,2346
1750239663.4301796,2541
1750239663.43027,2426
1750239663.4303596,2138
1750239663.430449,1847
1750239663.4305384,1622
1750239663.430628,1419
1750239663.430717,1260
1750239663.4308062,1351
1750239663.4308956,1772
1750239663.4309936,2280
1750239663.4310744,2537
1750239663.4313972,2466
1750239663.431485,2189
1750239663.4315748,1894
1750239663.431664,1665
1750239663.4317527,1473
1750239663.431842,1298
1750239663.4319532,1331
1750239663.432045,1695
1750239663.4321375,2209
1750239663.432229,2520
1750239663.432321,2504
1750239663.4324126,2255
1750239663.432505,1961
1750239663.4325964,1719
1750239663.4326885,1523
1750239663.43278,1331
1750239663.4328723,1312
1750239663.4329667,1624
1750239663.4330585,2146
1750239663.4331517,2513
1750239663.4332447,2549
1750239663.4333365,2318
1750239663.4348052,2012
1750239663.4348974,1752
1750239663.4349957,1555
1750239663.4350817,1361
1750239663.447327,1295
1750239663.4673576,1545
1750239663.4674394,2052
1750239663.4675152,2468
1750239663.4675899,2565
1750239663.4676642,2375
1750239663.4677386,2076
1750239663.4678128,1810
1750239663.4678872,1607
1750239663.4679606,1403
1750239663.4680343,1283
1750239663.468109,1463
1750239663.468183,1949
1750239663.468258,2420
1750239663.46834,2585
1750239663.4684134,2431
1750239663.468487,2124
1750239663.4974377,1835
1750239663.504221,1624
1750239663.506675,1431
1750239663.506785,1286
1750239663.5068948,1403
1750239663.5070019,1844
1750239663.507199,2341
1750239663.5073075,2568
1750239663.5074122,2470
1750239663.5075152,2181
1750239663.5171504,1886
1750239663.517359,1662
1750239663.517473,1467
1750239663.5175772,1294
1750239663.5176806,1348
1750239663.5177839,1737
1750239663.5178869,2252
1750239663.51799,2542
1750239663.518093,2500
1750239663.5181966,2230
1750239663.5182993,1929
1750239663.518402,1693
1750239663.5185053,1507
1750239663.5186214,1332
1750239663.5187244,1342
1750239663.5194635,1680
1750239663.5197198,2199
1750239663.5199642,2539
1750239663.5202084,2549
1750239663.5204768,2305
1750239663.597662,1999
1750239663.602182,1746
1750239663.6043003,1552
1750239663.6198156,1359
1750239663.6460896,1312
1750239663.7721941,1588
1750239663.8300836,2103
1750239663.8306918,2502
1750239663.8402526,2577
1750239663.8489377,2372
1750239663.8490698,2071
1750239663.84914,1806
1750239663.849207,1605
1750239663.8493211,1403
1750239663.8493938,1309
1750239663.8494616,1525
1750239663.8495293,2027
1750239663.8495975,2473
1750239663.849665,2600
1750239663.8497326,2420
1750239663.8497994,2110
1750239663.849867,1830
1750239663.8499334,1628
1750239663.8500006,1434
1750239663.8500693,1301
1750239663.8501348,1443
1750239663.8502007,1896
1750239663.8541028,2370
1750239663.8541822,2564
1750239663.854249,2443
1750239663.8543155,2152
1750239663.8543806,1862
1750239663.8544464,1645
1750239663.8545172,1453
1750239663.8545837,1301
1750239663.8546493,1391
1750239663.8547535,1804
1750239663.8548205,2300
1750239663.854886,2550
1750239663.85495,2480
1750239663.8550093,2206
1750239663.8550735,1911
1750239663.855139,1681
1750239663.855205,1489
1750239663.8552876,1319
1750239663.8553476,1358
1750239663.8554132,1726
1750239663.8554785,2242
1750239663.8555443,2551
1750239663.8556094,2531
1750239663.8556774,2274
1750239663.8557422,1971
1750239663.8558073,1726
1750239663.8558729,1532
1750239663.855938,1344
1750239663.856003,1323
1750239663.8560681,1631
1750239663.8561337,2151
1750239663.856199,2522
1750239663.8562639,2565
1750239663.8563294,2341
1750239663.8563943,2039
1750239663.8564594,1782
1750239663.8565245,1588
1750239663.8565896,1394
1750239663.8566551,1324
1750239663.8567202,1565
1750239663.8567858,2065
1750239663.8568501,2483
1750239663.8569155,2591
1750239663.8569794,2409
1750239663.8570445,2107
1750239663.8571098,1828
1750239663.857175,1620
1750239663.8572414,1428
1750239663.857307,1332
1750239663.8573725,1523
1750239663.8574378,1999
1750239663.857503,2452
1750239663.857569,2614
1750239663.857635,2477
1750239663.8577008,2187
1750239663.857776,1901
1750239663.8578496,1680
1750239663.8579233,1482
1750239663.8579965,1348
1750239663.8580704,1479
1750239663.8581436,1921
1750239663.8582168,2407
1750239663.8582902,2626
1750239663.8583636,2527
1750239663.858437,2241
1750239663.8585103,1942
1750239663.8585918,1708
1750239663.8586674,1508
1750239663.871588,1340
1750239663.8716664,1404
1750239663.9088957,1799
1750239664.0363772,2310
1750239664.0523744,2590
1750239664.0524876,2540
1750239664.052594,2268
1750239664.066582,1966
1750239664.0666938,1729
1750239664.0667975,1534
1750239664.0669005,1346
1750239664.067096,1352
1750239664.0672,1702
1750239664.0673032,2242
1750239664.0674932,2595
1750239664.0675972,2599
1750239664.0677004,2340
1750239664.067803,2030
1750239664.0679054,1785
1750239664.068016,1592
1750239664.068118,1382
1750239664.0682197,1315
1750239664.0686145,1594
1750239664.0690997,2139
1750239664.0699198,2564
1750239664.0707726,2637
1750239664.0708618,2406
1750239664.0709386,2088
1750239664.0710242,1833
1750239664.0711,1648
1750239664.0711746,1443
1750239664.0712502,1328
1750239664.0713253,1535
1750239664.071663,2052
1750239664.0717678,2518
1750239664.071871,2647
1750239664.072002,2453
1750239664.072094,2139
1750239664.0721705,1874
1750239664.0722456,1683
1750239664.0723205,1468
1750239664.0723953,1300
1750239664.07247,1431
1750239664.0725446,1915
1750239664.0726192,2426
1750239664.0726948,2617
1750239664.0727699,2460
1750239664.0728447,2144
1750239664.0729215,1873
1750239664.0729964,1690
1750239664.0730708,1498
1750239664.0731454,1310
1750239664.0732195,1378
1750239664.0732942,1820
1750239664.0733688,2368
1750239664.0734444,2634
1750239664.0735188,2526
1750239664.0735939,2206
1750239664.0736694,1909
1750239664.073744,1712
1750239664.0738192,1536
1750239664.0738935,1338
1750239664.0739703,1339
1750239664.0740457,1703
1750239664.0741205,2247
1750239664.0741947,2571
1750239664.0742695,2530
1750239664.0743437,2243
1750239664.0744185,1943
1750239664.074493,1729
1750239664.0781612,1553
1750239664.0782747,1348
1750239664.078378,1309
1750239664.0784798,1635
1750239664.0804496,2205
1750239664.1221583,2605
1750239664.1222885,2625
1750239664.1224096,2353
1750239664.1225321,2031
1750239664.122653,1797
1750239664.122773,1627
1750239664.122893,1419
1750239664.1359587,1310
1750239664.1362383,1536
1750239664.1390014,2057
1750239664.1392267,2498
1750239664.1398304,2594
1750239664.1400924,2378
1750239664.140295,2063
1750239664.1407492,1807
1750239664.1412284,1626
1750239664.141999,1424
1750239664.1421287,1287
1750239664.1423216,1454
1750239664.14252,1944
1750239664.1428018,2418
1750239664.142991,2574
1750239664.1431587,2403
1750239664.1432803,2089
1750239664.1433847,1815
1750239664.1434872,1625
1750239664.1435921,1436
1750239664.1437082,1278
1750239664.1438107,1378
1750239664.1439135,1809
1750239664.144017,2298
1750239664.1441321,2514
1750239664.1442344,2402
1750239664.1443365,2102
1750239664.1444387,1805
1750239664.144564,1588
1750239664.144668,1406
1750239664.144786,1247
1750239664.1448936,1312
1750239664.145047,1702
1750239664.1451514,2208
1750239664.1452677,2486
1750239664.1495981,2436
1750239664.1497083,2164
1750239664.1498134,1860
1750239664.1499548,1622
1750239664.1502233,1434
1750239664.1503272,1262
1750239664.150429,1279
1750239664.150531,1622
1750239664.1506467,2139
1750239664.1507497,2473
1750239664.1546743,2480
1750239664.1547785,2235
1750239664.1548808,1930
1750239664.1549833,1678
1750239664.155085,1484
1750239664.1551876,1295
1750239664.1553044,1258
1750239664.1554086,1548
1750239664.1555116,2072
1750239664.1556165,2469
1750239664.1557195,2533
1750239664.1558228,2313
1750239664.1559248,2002
1750239664.1560278,1734
1750239664.1561306,1533
1750239664.1562335,1331
1750239664.1566694,1235
1750239664.156749,1450
1750239664.1568224,1950
1750239664.1568978,2396
1750239664.1569712,2531
1750239664.1570446,2361
1750239664.1571171,2056
1750239664.1571887,1774
1750239664.1572616,1563
1750239664.1573331,1363
1750239664.1574056,1238
1750239664.1574774,1397
1750239664.1575494,1862
1750239664.1576207,2335
1750239664.1576931,2519
1750239664.1577654,2391
1750239664.1578372,2100
1750239664.1579099,1812
1750239664.157982,1592
1750239664.1580539,1391
1750239664.1581297,1239
1750239664.1582036,1351
1750239664.158277,1794
1750239664.1583507,2308
1750239664.158431,2554
1750239664.1585162,2466
1750239664.1586237,2177
1750239664.1586974,1879
1750239664.1587694,1649
1750239664.1588414,1452
1750239664.1589136,1271
1750239664.158986,1304
1750239664.159058,1673
1750239664.1770194,2192
1750239664.1773655,2505
1750239664.1783564,2489
1750239664.178434,2234
1750239664.178506,1931
1750239664.1786065,1679
1750239664.178685,1476
1750239664.1787574,1288
1750239664.1788287,1282
1750239664.1789002,1610
1750239664.1789715,2137
1750239664.1790361,2502
1750239664.1790955,2535
1750239664.1791675,2305
1750239664.1792388,2000
1750239664.1793106,1736
1750239664.1793742,1530
1750239664.179438,1328
1750239664.1795094,1263
1750239664.1795812,1519
1750239664.1796527,2030
1750239664.1797237,2446
1750239664.1797948,2542
1750239664.1798654,2352
1750239664.1799364,2053
1750239664.1800082,1783
1750239664.1800854,1578
1750239664.1801572,1378
1750239664.1802292,1271
1750239664.1803043,1461
1750239664.180377,1944
1750239664.1804485,2401
1750239664.1805193,2557
1750239664.1805906,2403
1750239664.1806614,2098
1750239664.180733,1805
1750239664.180805,1591
1750239664.180876,1404
1750239664.1809473,1277
1750239664.1810184,1406
1750239664.1810896,1837
1750239664.1811602,2311
1750239664.181232,2528
1750239664.1813054,2438
1750239664.181376,2157
1750239664.1814473,1854
1750239664.1815183,1618
1750239664.18159,1427
1750239664.1816607,1280
1750239664.181732,1354
1750239664.181803,1731
1750239664.1818743,2210
1750239664.1866016,2478
1750239664.1868095,2446
1750239664.1869743,2197
1750239664.1871328,1893
1750239664.187286,1631
1750239664.187437,1423
1750239664.1875746,1259
1750239664.1878066,1308
1750239664.1879938,1682
1750239664.1881728,2208
1750239664.1883342,2534
1750239664.188537,2527
1750239664.1887329,2270
1750239664.1896188,1957
1750239664.1896956,1697
1750239664.1897976,1496
1750239664.189972,1303
1750239664.190111,1267
1750239664.1906865,1558
1750239664.1907709,2081
1750239664.191397,2478
1750239664.191475,2548
1750239664.1915517,2334
1750239664.19163,2024
1750239664.1917074,1751
1750239664.1917877,1544
1750239664.1918652,1343
1750239664.1919644,1257
1750239664.192078,1484
1750239664.1926143,1989
1750239664.1926932,2437
1750239664.1932886,2574
1750239664.1933665,2406
1750239664.193443,2098
1750239664.1935232,1805
1750239664.1938136,1584
1750239664.2188687,1383
1750239664.3089063,1267
1750239664.322045,1440
1750239664.40586,1918
1750239664.4237502,2398
1750239664.4255927,2589
1750239664.4257152,2463
1750239664.4257987,2166
1750239664.42588,1869
1750239664.425964,1641
1750239664.4260464,1436
1750239664.4261284,1281
1750239664.4262104,1385
1750239664.4262917,1818
1750239664.426374,2325
1750239664.4264553,2569
1750239664.4265366,2481
1750239664.4384348,2191
1750239664.4663606,1886
1750239664.5458567,1650
1750239664.5671813,1446
1750239664.568071,1262
1750239664.5684032,1296
1750239664.6310134,1669
1750239664.6469307,2190
1750239664.6470091,2500
1750239664.6470706,2476
1750239664.6538231,2211
1750239664.65638,1899
1750239664.656534,1651
1750239664.6580365,1463
1750239664.6581447,1283
1750239664.6582508,1266
1750239664.6583557,1555
1750239664.6584606,2036
1750239664.6585853,2373
1750239664.6586914,2411
1750239664.6587968,2201
1750239664.6589015,1908
1750239664.6590068,1641
1750239664.6591115,1433
1750239664.6592166,1250
1750239664.6593242,1225
1750239664.6596737,1521
1750239664.6597803,2051
1750239664.6639209,2460
1750239664.6641955,2539
1750239664.6643052,2331
1750239664.6644135,2018
1750239664.6645474,1740
1750239664.6646912,1536
1750239664.664839,1342
1750239664.6649556,1243
1750239664.6650774,1437
1750239664.6651828,1916
1750239664.675893,2369
1750239664.6760015,2530
1750239664.6761065,2389
1750239664.6762102,2095
1750239664.6763136,1803
1750239664.6764164,1579
1750239664.6765203,1380
1750239664.6766238,1248
1750239664.6767273,1377
1750239664.6768305,1806
1750239664.6769335,2273
1750239664.6770368,2484
1750239664.67714,2395
1750239664.6772442,2120
1750239664.6773472,1820
1750239664.6774502,1578
1750239664.6775532,1378
1750239664.6776626,1232
1750239664.677766,1329
1750239664.6778686,1744
1750239664.6779714,2254
1750239664.678075,2526
1750239664.678751,2478
1750239664.6788626,2211
1750239664.6789675,1908
1750239664.6972451,1664
1750239664.703989,1470
1750239664.7045426,1297
1750239664.7259543,1323
1750239664.7961855,1675
1750239664.797088,2193
1750239664.797163,2526
1750239664.7972357,2531
1750239664.797308,2283
1750239664.7973797,1975
1750239664.7974532,1718
1750239664.7975335,1519
1750239664.7976468,1323
1750239664.7984753,1280
1750239664.8095727,1564
1750239664.809654,2081
1750239664.8097265,2472
1750239664.8097987,2536
1750239664.8098898,2317
1750239664.8099627,2004
1750239664.8100343,1734
1750239664.8101048,1536
1750239664.8101757,1342
1750239664.8102474,1262
1750239664.810333,1493
1750239664.8104057,2002
1750239664.8104773,2446
1750239664.8105485,2572
1750239664.8106194,2389
1750239664.810691,2076
1750239664.8107762,1793
1750239664.8108528,1589
1750239664.8109236,1397
1750239664.810986,1275
1750239664.8110569,1433
1750239664.8111289,1898
1750239664.8112133,2374
1750239664.811286,2567
1750239664.8113563,2444
1750239664.8114266,2147
1750239664.8114972,1850
1750239664.811569,1629
1750239664.811681,1439
1750239664.811752,1299
1750239664.8118234,1407
1750239664.8119032,1830
1750239664.811974,2325
1750239664.8120723,2571
1750239664.8121414,2498
1750239664.8122103,2219
1750239664.8122816,1914
1750239664.8123536,1673
1750239664.8124242,1477
1750239664.8125186,1312
1750239664.81259,1364
1750239664.8126612,1740
1750239664.812731,2250
1750239664.8320587,2550
1750239664.8321412,2524
1750239664.8322148,2263
1750239664.8326042,1955
1750239664.8326957,1705
1750239664.8327687,1510
1750239664.8328416,1328
1750239664.8329206,1324
1750239664.832993,1644
1750239664.8330648,2161
1750239664.833137,2515
1750239664.833209,2540
1750239664.8332818,2301
1750239664.8333535,1991
1750239664.8334255,1732
1750239664.8334975,1537
1750239664.8335679,1347
1750239664.8336325,1291
1750239664.833705,1552
1750239664.8337772,2065
1750239664.8338494,2481
1750239664.8339212,2577
1750239664.8339934,2379
1750239664.8340697,2065
1750239664.8341444,1783
1750239664.8342183,1578
1750239664.8342927,1389
1750239664.8343668,1292
1750239664.8344412,1473
1750239664.8345149,1927
1750239664.834589,2354
1750239664.8346634,2504
1750239664.8347378,2367
1750239664.8348122,2080
1750239664.8348927,1790
1750239664.8349679,1567
1750239664.83503,1378
1750239664.8350935,1276
1750239664.8351676,1450
1750239664.8420742,1924
1750239664.919643,2412
1750239664.9198558,2615
1750239664.919932,2500
1750239664.9200053,2205
1750239664.9200788,1903
1750239664.9201596,1669
1750239664.9202356,1467
1750239664.920313,1305
1750239664.9203892,1382
1750239664.9222877,1784
1750239664.922371,2290
1750239664.922449,2566
1750239664.922528,2520
1750239664.9234376,2252
1750239664.9622262,1946
1750239664.9706388,1699
1750239664.9707396,1502
1750239664.9714546,1327
1750239664.9715538,1339
1750239664.9716473,1663
1750239664.9717414,2150
1750239664.971836,2469
1750239664.9780357,2488
1750239664.9869757,2264
1750239664.9872918,1961
1750239664.9874423,1687
1750239664.9875166,1472
1750239664.9875863,1291
1750239664.9876618,1292
1750239664.9877322,1617
1750239664.987807,2146
1750239665.0037327,2524
1750239665.0301926,2572
1750239665.0356622,2349
1750239665.0533693,2041
1750239665.054798,1771
1750239665.0565267,1566
1750239665.056871,1366
1750239665.0571995,1289
1750239665.0647283,1525
1750239665.1059856,2032
1750239665.1060743,2468
1750239665.106155,2590
1750239665.1509829,2412
1750239665.1886487,2107
1750239665.1887312,1823
1750239665.1888113,1611
1750239665.1888807,1413
1750239665.1889505,1297
1750239665.1890223,1463
1750239665.1890895,1926
1750239665.1891615,2388
1750239665.1892376,2568
1750239665.1893086,2444
1750239665.1893792,2150
1750239665.18945,1849
1750239665.1895208,1615
1750239665.189592,1414
1750239665.189662,1271
1750239665.1897323,1380
1750239665.1898036,1799
1750239665.189874,2284
1750239665.1899443,2526
1750239665.1900148,2456
1750239665.1900852,2183
1750239665.1901555,1879
1750239665.1902254,1638
1750239665.1902957,1447
1750239665.190366,1301
1750239665.1904366,1379
1750239665.190507,1777
1750239665.1905775,2296
1750239665.1906478,2590
1750239665.1907182,2554
1750239665.19079,2286
1750239665.19086,1980
1750239665.1909306,1735
1750239665.191002,1538
1750239665.1910727,1346
1750239665.1911435,1336
1750239665.1912134,1664
1750239665.191284,2199
1750239665.1913538,2573
1750239665.1914246,2608
1750239665.191495,2368
1750239665.191565,2054
1750239665.1916351,1795
1750239665.1917052,1600
1750239665.1917756,1405
1750239665.1918457,1342
1750239665.1919243,1600
1750239665.191995,2115
1750239665.1920657,2530
1750239665.192137,2617
1750239665.2243483,2407
1750239665.224767,2090
1750239665.2251294,1814
1750239665.2255085,1616
1750239665.2313058,1423
1750239665.2375417,1321
1750239665.2406592,1514
1750239665.2410014,1997
1750239665.241336,2450
1750239665.241669,2603
1750239665.2481987,2448
1750239665.2786117,2141
1750239665.3945365,1846
1750239665.4284945,1627
1750239665.4285953,1433
1750239665.4286654,1308
1750239665.4287376,1449
1750239665.4288106,1896
1750239665.4291358,2373
1750239665.4292347,2586
1750239665.4293108,2488
1750239665.4324775,2202
1750239665.4885683,1898
1750239665.4916313,1661
1750239665.4917407,1468
1750239665.4918456,1321
1750239665.4920862,1398
1750239665.492235,1774
1750239665.4923396,2240
1750239665.4924448,2492
1750239665.4925535,2453
1750239665.4927309,2206
1750239665.4928374,1908
1750239665.493395,1653
1750239665.4936423,1452
1750239665.4939773,1300
1750239665.4957852,1367
1750239665.4962947,1753
1750239665.4966815,2276
1750239665.4970357,2591
1750239665.4974473,2579
1750239665.4989288,2327
1750239665.523721,2021
1750239665.5759473,1763
1750239665.5760505,1559
1750239665.576134,1365
1750239665.5762212,1335
1750239665.576305,1633
1750239665.576388,2150
1750239665.5764716,2528
1750239665.5765853,2580
1750239665.5766706,2358
1750239665.576754,2052
1750239665.576837,1787
1750239665.5769198,1586
1750239665.5770187,1384
1750239665.5771012,1302
1750239665.5771835,1537
1750239665.5772662,2047
1750239665.5773485,2486
1750239665.5774462,2606
1750239665.5775285,2422
1750239665.5776112,2109
1750239665.577694,1821
1750239665.5777767,1610
1750239665.577873,1416
1750239665.5779557,1304
1750239665.5780385,1475
1750239665.5781214,1939
1750239665.5782044,2400
1750239665.5782988,2578
1750239665.5783832,2450
1750239665.5784655,2155
1750239665.5785592,1857
1750239665.5786448,1633
1750239665.5787408,1442
1750239665.578825,1308
1750239665.578908,1422
1750239665.5789902,1840
1750239665.579073,2319
1750239665.5791554,2553
1750239665.5792527,2479
1750239665.5793355,2205
1750239665.5794184,1901
1750239665.5795004,1656
1750239665.579583,1457
1750239665.5796814,1303
1750239665.5797634,1380
1750239665.5798457,1782
1750239665.579928,2302
1750239665.58001,2591
1750239665.580117,2546
1750239665.5802,2272
1750239665.580283,1967
1750239665.5804324,1727
1750239665.58051,1530
1750239665.5805852,1336
1750239665.580663,1329
1750239665.5807383,1671
1750239665.5808132,2219
1750239665.5809028,2592
1750239665.5809782,2613
1750239665.5810535,2361
1750239665.5811281,2049
1750239665.5812027,1797
1750239665.5812778,1600
1750239665.5813663,1386
1750239665.5814416,1305
1750239665.581517,1560
1750239665.5815928,2082
1750239665.581668,2501
1750239665.581756,2585
1750239665.581913,2372
1750239665.581994,2058
1750239665.5820775,1789
1750239665.5821526,1594
1750239665.5865877,1399
1750239665.5866668,1294
1750239665.5867403,1483
1750239665.5868132,1958
1750239665.586886,2398
1750239665.5869596,2540
1750239665.5870323,2384
1750239665.5871053,2084
1750239665.587178,1800
1750239665.5872533,1592
1750239665.5873268,1407
1750239665.5873992,1292
1750239665.5874698,1441
1750239665.5875425,1888
1750239665.587615,2357
1750239665.5876873,2555
1750239665.58776,2443
1750239665.587832,2150
1750239665.5879045,1848
1750239665.5879846,1616
1750239665.588057,1422
1750239665.5881295,1279
1750239665.588202,1383
1750239665.5882745,1809
1750239665.5883472,2322
1750239665.5884194,2585
1750239665.5884914,2516
1750239665.5885742,2230
1750239665.5886467,1923
1750239665.5887191,1689
1750239665.5887911,1499
1750239665.5888627,1320
1750239665.6091585,1338
1750239665.6543198,1689
1750239665.6590734,2212
1750239665.6594038,2547
1750239665.6597376,2550
1750239665.6600718,2300
1750239665.6604261,1991
1750239665.6607695,1738
1750239665.6615932,1543
1750239665.662819,1353
1750239665.6631424,1323
1750239665.6635954,1618
1750239665.6639276,2138
1750239665.6642585,2524
1750239665.66459,2584
1750239665.6649346,2362
1750239665.6652935,2047
1750239665.665604,1773
1750239665.6657774,1570
1750239665.7256913,1379
1750239665.7615945,1310
1750239665.8267403,1549
1750239665.827005,2049
1750239665.827078,2471
1750239665.8271797,2581
1750239665.8272457,2398
1750239665.827306,2090
1750239665.827372,1808
1750239665.8274386,1598
1750239665.8275049,1401
1750239665.827571,1289
1750239665.827637,1463
1750239665.827703,1934
1750239665.8277688,2395
1750239665.827953,2565
1750239665.8280215,2424
1750239665.8281343,2122
1750239665.8419013,1829
1750239665.8419805,1614
1750239665.842049,1427
1750239665.8421156,1292
1750239665.8422017,1410
1750239665.8422682,1840
1750239665.8448012,2328
1750239665.8511326,2558
1750239665.8512003,2470
1750239665.8512642,2183
1750239665.851324,1877
1750239665.85139,1638
1750239665.8514555,1438
1750239665.8516533,1275
1750239665.8520322,1340
1750239665.8521,1734
1750239665.852166,2252
1750239665.8522346,2548
1750239665.8523045,2513
1750239665.8523753,2247
1750239665.8524458,1941
1750239665.8525167,1699
1750239665.8525865,1512
1750239665.8526566,1339
1750239665.8527265,1344
1750239665.852796,1670
1750239665.8528674,2182
1750239665.8529377,2532
1750239665.8530083,2560
1750239665.8530788,2326
1750239665.8531494,2013
1750239665.8532193,1744
1750239665.8532894,1544
1750239665.8533592,1359
1750239665.8534296,1320
1750239665.853507,1592
1750239665.8535783,2098
1750239665.853648,2496
1750239665.8537183,2581
1750239665.8537881,2384
1750239665.853858,2075
1750239665.8539286,1793
1750239665.8539987,1583
1750239665.8540685,1389
1750239665.8541381,1304
1750239665.8542068,1516
1750239665.8542776,2005
1750239665.8543475,2449
1750239665.8544173,2593
1750239665.8544877,2434
1750239665.8545578,2131
1750239665.8546274,1842
1750239665.854698,1625
1750239665.8547676,1427
1750239665.8548374,1301
1750239665.8549082,1451
1750239665.8549786,1911
1750239665.8550382,2393
1750239665.855101,2594
1750239665.8551714,2473
1750239665.8655083,2173
1750239665.8657117,1873
1750239665.8862178,1649
1750239665.8868892,1455
1750239665.8871644,1298
1750239665.887273,1385
1750239665.8875031,1802
1750239665.887609,2317
1750239665.9008753,2584
1750239665.901254,2516
1750239665.9021997,2227
1750239665.9022741,1916
1750239665.9023454,1678
1750239665.9024162,1484
1750239665.902487,1307
1750239665.9025571,1333
1750239665.9026349,1693
1750239665.9027057,2216
1750239665.902776,2540
1750239665.9028456,2529
1750239665.902917,2267
1750239665.9029863,1955
1750239665.903046,1704
1750239665.9031115,1511
1750239665.9031818,1324
1750239665.9032514,1301
1750239665.903319,1607
1750239665.903378,2132
1750239665.9034472,2511
1750239665.9035165,2556
1750239665.9035861,2322
1750239665.9036546,2005
1750239665.903724,1737
1750239665.9037933,1538
1750239665.903863,1342
1750239665.9039323,1268
1750239665.904003,1509
1750239665.904072,2019
1750239665.9041407,2452
1750239665.9042099,2567
1750239665.9042792,2379
1750239665.9043489,2067
1750239665.9044182,1784
1750239665.9044874,1578
1750239665.9045568,1385
1750239665.90463,1278
1750239665.9046993,1461
1750239665.904769,1943
1750239665.904838,2413
1750239665.904907,2586
1750239665.9049764,2440
1750239665.905046,2132
1750239665.9051154,1835
1750239665.9051845,1616
1750239665.9053206,1422
1750239665.9060807,1283
1750239665.923079,1403
1750239665.9280877,1844
1750239665.932285,2343
1750239665.9326265,2576
1750239665.9344583,2482
1750239665.9348998,2188
1750239665.9353197,1881
1750239665.9357111,1647
1750239665.9360917,1451
1750239665.9365165,1287
1750239665.9368794,1353
1750239665.9372163,1752
1750239665.9375503,2275
1750239665.9378817,2571
1750239665.9382136,2531
1750239665.9385395,2254
1750239666.0051148,1937
1750239666.013922,1684
1750239666.0531297,1483
1750239666.057149,1298
1750239666.057401,1303
1750239666.0574677,1641
1750239666.0575347,2166
1750239666.0576015,2512
1750239666.0576687,2524
1750239666.057735,2274
1750239666.0578022,1961
1750239666.0582786,1703
1750239666.058416,1503
1750239666.058483,1303
1750239666.0585606,1250
1750239666.0586283,1527
1750239666.058772,2052
1750239666.0588443,2461
1750239666.058917,2537
1750239666.0589867,2318
1750239666.0590465,1997
1750239666.0591128,1720
1750239666.0591857,1521
1750239666.0592585,1330
1750239666.0593283,1245
1750239666.0593882,1462
1750239666.0594616,1959
1750239666.0595367,2407
1750239666.05961,2546
1750239666.059683,2381
1750239666.059756,2075
1750239666.059829,1788
1750239666.059902,1573
1750239666.05998,1376
1750239666.060054,1256
1750239666.0601273,1417
1750239666.0602,1885
1750239666.0602734,2364
1750239666.0603464,2558
1750239666.0604198,2435
1750239666.060493,2138
1750239666.0605662,1839
1750239666.06064,1611
1750239666.060714,1409
1750239666.0607865,1254
1750239666.0608592,1352
1750239666.0609307,1777
1750239666.0610025,2286
1750239666.0610747,2545
1750239666.0611467,2476
1750239666.0612185,2195
1750239666.0612912,1888
1750239666.0613625,1647
1750239666.0614343,1450
1750239666.0615058,1279
1750239666.0615776,1323
1750239666.0616493,1697
1750239666.0617216,2216
1750239666.0617933,2528
1750239666.0618649,2510
1750239666.0619633,2249
1750239666.0620608,1937
1750239666.0628045,1682
1750239666.1138031,1484
1750239666.1142151,1301
1750239666.1145494,1290
1750239666.1148686,1604
1750239666.1152005,2125
1750239666.1155553,2497
1750239666.115886,2544
1750239666.116217,2321
1750239666.1165454,2009
1750239666.1168747,1735
1750239666.117208,1528
1750239666.1175358,1336
1750239666.1178656,1282
1750239666.1181936,1544
1750239666.1185222,2057
1750239666.1716857,2476
1750239666.172119,2579
1750239666.1878512,2392
1750239666.2681637,2083
1750239666.2703114,1797
1750239666.2704835,1580
1750239666.2852392,1380
1750239666.2853281,1278
1750239666.2873182,1471
1750239666.2875297,1951
1750239666.3043447,2405
1750239666.3202834,2564
1750239666.340383,2418
1750239666.354238,2120
1750239666.3546288,1830
1750239666.3549783,1611
1750239666.355356,1414
1750239666.3557215,1279
1750239666.3560846,1407
1750239666.356448,1848
1750239666.356811,2334
1750239666.3571892,2556
1750239666.3575516,2462
1750239666.3579159,2178
1750239666.3582785,1879
1750239666.3690023,1643
1750239666.3691158,1440
1750239666.3745687,1274
1750239666.4137218,1342
1750239666.4511013,1739
1750239666.4511843,2250
1750239666.4512534,2532
1750239666.4514189,2485
1750239666.4514894,2211
1750239666.4515564,1902
1750239666.4516256,1658
1750239666.451694,1467
1750239666.4517612,1297
1750239666.4518309,1319
1750239666.451915,1666
1750239666.4519835,2186
1750239666.4520502,2526
1750239666.452118,2537
1750239666.4521863,2292
1750239666.4522536,1981
1750239666.4523203,1722
1750239666.452387,1526
1750239666.4524531,1343
1750239666.452543,1312
1750239666.452613,1599
1750239666.45268,2115
1750239666.4527493,2507
1750239666.4528172,2579
1750239666.4528842,2370
1750239666.452951,2060
1750239666.4530182,1784
1750239666.4530852,1574
1750239666.4531527,1373
1750239666.4532304,1289
1750239666.4532971,1515
1750239666.4533637,2018
1750239666.45343,2464
1750239666.4534972,2598
1750239666.4535642,2428
1750239666.4536307,2122
1750239666.4536994,1837
1750239666.4537668,1626
1750239666.4538338,1431
1750239666.453901,1315
1750239666.453969,1481
1750239666.4540362,1952
1750239666.4541032,2427
1750239666.4541695,2610
1750239666.4542367,2476
1750239666.4543042,2176
1750239666.4543693,1883
1750239666.4613612,1663
1750239666.461472,1461
1750239666.461578,1303
1750239666.4616835,1402
1750239666.4643056,1835
1750239666.4678078,2350
1750239666.4679184,2604
1750239666.4683685,2522
1750239666.4694614,2230
1750239666.4695704,1924
1750239666.4705365,1693
1750239666.4706488,1502
1750239666.4707582,1331
1750239666.4708667,1373
1750239666.4711094,1750
1750239666.4712179,2274
1750239666.4714675,2588
1750239666.4715786,2568
1750239666.4716828,2304
1750239666.4717886,1993
1750239666.471929,1742
1750239666.499277,1545
1750239666.500187,1358
1750239666.5005858,1347
1750239666.501127,1667
1750239666.5015502,2195
1750239666.5047305,2568
1750239666.5056393,2606
1750239666.50618,2368
1750239666.5062995,2047
1750239666.5064096,1774
1750239666.5116959,1570
1750239666.5432801,1374
1750239666.5434046,1313
1750239666.5435114,1571
1750239666.5436332,2085
1750239666.5437448,2503
1750239666.5438495,2597
1750239666.5439541,2393
1750239666.5440693,2076
1750239666.5441773,1795
1750239666.5442822,1589
1750239666.5443861,1390
1750239666.545709,1282
1750239666.5458162,1472
1750239666.5459213,1959
1750239666.5460258,2423
1750239666.54613,2584
1750239666.5462341,2429
1750239666.5463383,2120
1750239666.5464427,1828
1750239666.5476058,1612
1750239666.5477188,1416
1750239666.5478265,1281
1750239666.5479305,1417
1750239666.5480504,1871
1750239666.5481553,2364
1750239666.5482597,2582
1750239666.548364,2476
1750239666.548482,2183
1750239666.5485983,1881
1750239666.5487037,1646
1750239666.5488076,1441
1750239666.5493655,1276
1750239666.5494707,1353
1750239666.5495822,1758
1750239666.5496886,2262
1750239666.5498054,2522
1750239666.551637,2452
1750239666.5517483,2167
1750239666.551859,1858
1750239666.551982,1612
1750239666.5520906,1412
1750239666.5521994,1232
1750239666.5523074,1258
1750239666.5524163,1621
1750239666.552525,2158
1750239666.5526335,2506
1750239666.552741,2521
1750239666.5528498,2280
1750239666.5529575,1973
1750239666.5531058,1715
1750239666.553216,1517
1750239666.5533254,1337
1750239666.6163263,1323
1750239666.6164825,1633
1750239666.616831,2156
1750239666.6191719,2533
1750239666.619261,2576
1750239666.6194415,2342
1750239666.6195242,2022
1750239666.619607,1744
1750239666.6196892,1529
1750239666.6197717,1318
1750239666.6198602,1230
1750239666.619943,1465
1750239666.6200323,1983
1750239666.6201143,2436
1750239666.620196,2569
1750239666.6202781,2396
1750239666.6203766,2089
1750239666.620468,1803
1750239666.6205506,1590
1750239666.620633,1394
1750239666.6207147,1283
1750239666.620797,1461
1750239666.6208787,1939
1750239666.6209605,2414
1750239666.6210427,2599
1750239666.6211252,2471
1750239666.6212068,2176
1750239666.6212885,1877
1750239666.621374,1643
1750239666.621456,1435
1750239666.6215367,1288
1750239666.6216183,1407
1750239666.6217,1848
1750239666.6217818,2348
1750239666.6218631,2584
1750239666.6219642,2496
1750239666.6220474,2211
1750239666.6221297,1913
1750239666.6222124,1681
1750239666.622294,1486
1750239666.6223755,1318
1750239666.622453,1370
1750239666.6225348,1752
1750239666.6226163,2270
1750239666.6226974,2573
1750239666.6227791,2548
1750239666.62286,2287
1750239666.6229413,1979
1750239666.6275296,1726
1750239666.6276147,1524
1750239666.6276972,1338
1750239666.6277788,1336
1750239666.6278605,1664
1750239666.6279414,2186
1750239666.6280231,2542
1750239666.6281052,2566
1750239666.628188,2324
1750239666.6282718,2008
1750239666.628353,1741
1750239666.6284344,1539
1750239666.62852,1345
1750239666.6611195,1290
1750239666.6613271,1555
1750239666.6616528,2068
1750239666.6618507,2481
1750239666.6620767,2575
1750239666.6622715,2376
1750239666.662466,2064
1750239666.66266,1782
1750239666.6628535,1575
1750239666.663046,1382
1750239666.6632388,1291
1750239666.6634316,1497
1750239666.6636255,1985
1750239666.6638188,2436
1750239666.6640122,2584
1750239666.6642003,2428
1750239666.6643937,2128
1750239666.6664944,1843
1750239666.6739056,1626
1750239666.6741076,1421
1750239666.6742456,1284
1750239666.674437,1432
1750239666.6745133,1908
1750239666.6745799,2415
1750239666.6746485,2627
1750239666.674716,2501
1750239666.6747837,2193
1750239666.6748497,1899
1750239666.6749175,1688
1750239666.6749845,1499
1750239666.675051,1327
1750239666.6751177,1385
1750239666.675184,1784
1750239666.6752899,2299
1750239666.6753554,2579
1750239666.6754239,2523
1750239666.6754901,2239
1750239666.6755552,1926
1750239666.6756206,1682
1750239666.675687,1487
1750239666.6757529,1311
1750239666.6758204,1339
1750239666.6758883,1698
1750239666.6759546,2221
1750239666.6760206,2547
1750239666.6760864,2540
1750239666.6761522,2285
1750239666.6762178,1975
1750239666.6762836,1719
1750239666.6763499,1518
1750239666.676416,1325
1750239666.6764843,1298
1750239666.6765504,1602
1750239666.676618,2129
1750239666.6766846,2516
1750239666.6767514,2575
1750239666.6768177,2357
1750239666.6768847,2049
1750239666.6769505,1782
1750239666.6770163,1579
1750239666.677082,1383
1750239666.6771483,1311
1750239666.6772144,1551
1750239666.6772804,2053
1750239666.677346,2477
1750239666.6774266,2586
1750239666.6774993,2402
1750239666.6775694,2099
1750239666.677635,1823
1750239666.6777003,1617
1750239666.6777663,1419
1750239666.6778326,1305
1750239666.6779032,1483
1750239666.677968,1965
1750239666.678034,2439
1750239666.6780996,2614
1750239666.678165,2473
1750239666.6782312,2169
1750239666.6782966,1874
1750239666.6783624,1653
1750239666.6784277,1459
1750239666.6784937,1322
1750239666.6785727,1451
1750239666.6786382,1903
1750239666.678704,2411
1750239666.6787696,2650
1750239666.6788352,2559
1750239666.6789005,2268
1750239666.6789591,1961
1750239666.6790292,1717
1750239666.6790953,1504
1750239666.679162,1321
1750239666.679226,1370
1750239666.679285,1759
1750239666.6793523,2277
1750239666.679418,2570
1750239666.6794837,2532
1750239666.6795502,2266
1750239666.679616,1965
1750239666.6796803,1723
1750239666.6797457,1522
1750239666.679812,1328
1750239666.6906645,1319
1750239666.6907809,1648
1750239666.690862,2172
1750239666.6909401,2527
1750239666.6910062,2548
1750239666.6910706,2306
1750239666.6911519,1996
1750239666.6912227,1737
1750239666.6912823,1541
1750239666.6931918,1350
1750239666.693268,1299
1750239666.6933355,1565
1750239666.6934078,2071
1750239666.6934896,2468
1750239666.697853,2546
1750239666.6979816,2344
1750239666.698061,2039
1750239666.6981392,1766
1750239666.698217,1559
1750239666.698295,1360
1750239666.6983728,1268
1750239666.69845,1477
1750239666.6985278,1965
1750239666.6986227,2408
1750239666.6987004,2547
1750239666.6987777,2387
1750239666.6988556,2090
1750239666.698933,1808
1750239666.6990016,1599
1750239666.6990614,1410
1750239666.6991389,1291
1750239666.6992161,1445
1750239666.6992934,1900
1750239666.6993527,2374
1750239666.699425,2572
1750239666.6995015,2462
1750239666.699578,2178
1750239666.6996565,1886
1750239666.6997342,1656
1750239666.6998117,1452
1750239666.6998847,1293
1750239666.699955,1384
1750239666.7000248,1803
1750239666.700094,2310
1750239666.7001634,2570
1750239666.7002332,2503
1750239666.7003026,2228
1750239666.7003717,1931
1750239666.7004411,1697
1750239666.7005112,1501
1750239666.7005813,1321
1750239666.700653,1346
1750239666.7292812,1705
1750239666.7293584,2224
1750239666.7294316,2546
1750239666.7295048,2534
1750239666.7296398,2274
1750239666.7297132,1962
1750239666.7297823,1709
1750239666.729854,1514
1750239666.7299256,1329
1750239666.7299979,1307
1750239666.7300699,1609
1750239666.7301419,2126
1750239666.7302134,2501
1750239666.7302856,2549
1750239666.7303576,2327
1750239666.7304294,2022
1750239666.7305093,1756
1750239666.730581,1554
1750239666.7306528,1356
1750239666.7307248,1286
1750239666.7307963,1536
1750239666.7308676,2050
1750239666.73094,2481
1750239666.7310019,2588
1750239666.7310667,2397
1750239666.7311385,2087
1750239666.7312105,1807
1750239666.731282,1600
1750239666.7313435,1402
1750239666.7314136,1288
1750239666.7314851,1465
1750239666.7315571,1942
1750239666.7316291,2410
1750239666.7317004,2586
1750239666.7317727,2453
1750239666.7318442,2161
1750239666.732172,1873
1750239666.7322483,1650
1750239666.7323208,1447
1750239666.732411,1299
1750239666.7324915,1416
1750239666.7325637,1856
1750239666.737337,2351
1750239666.7374344,2580
1750239666.7429678,2484
1750239666.7436645,2195
1750239666.7635267,1898
1750239666.787699,1672
1750239666.788682,1481
1750239666.78902,1319
1750239666.7893498,1384
1750239666.789679,1782
1750239666.7900085,2305
1750239666.7903366,2600
1750239666.7906654,2559
1750239666.7910025,2283
1750239666.7913327,1971
1750239666.791658,1723
1750239666.8287306,1527
1750239666.8411796,1342
1750239666.8420951,1344
1750239666.8421843,1682
1750239666.8422601,2212
1750239666.8425295,2571
1750239666.8426037,2595
1750239666.8426788,2352
1750239666.8427536,2036
1750239666.8428278,1768
1750239666.842899,1562
1750239666.842965,1366
1750239666.8737082,1320
1750239666.8863084,1595
1750239666.8867788,2109
1750239666.8868659,2508
1750239666.8869488,2587
1750239666.8870318,2384
1750239666.8871138,2078
1750239666.8871958,1800
1750239666.8872778,1585
1750239666.8873608,1378
1750239666.887444,1284
1750239666.8875277,1502
1750239666.8876102,2002
1750239666.8876927,2449
1750239666.887786,2585
1750239666.8878675,2419
1750239666.8879492,2118
1750239666.8880315,1837
1750239666.8881145,1626
1750239666.895985,1426
1750239666.8982038,1295
1750239666.8988636,1444
1750239666.8992326,1905
1750239666.8996077,2384
1750239666.8999727,2578
1750239666.9003386,2453
1750239666.9007034,2156
1750239666.9010684,1862
1750239666.901436,1639
1750239666.9018102,1444
1750239666.9022012,1291
1750239666.9514768,1386
1750239666.9728632,1808
1750239666.9758532,2315
1750239666.975939,2572
1750239666.976014,2504
1750239666.976088,2227
1750239666.9761617,1927
1750239666.9762506,1688
1750239666.9763312,1485
1750239666.976405,1304
1750239666.9764779,1339
1750239666.9765518,1711
1750239666.9766252,2233
1750239666.9782708,2545
1750239666.9937863,2524
1750239666.9940157,2269
1750239666.994268,1972
1750239666.994595,1730
1750239666.9954565,1533
1750239666.9955332,1336
1750239666.995611,1309
1750239666.9962766,1617
1750239666.996974,2140
1750239666.9971402,2512
1750239666.997352,2552
1750239666.9974492,2321
1750239666.9975224,2011
1750239666.9975953,1747
1750239666.9978995,1547
1750239667.001768,1353
1750239667.0018568,1287
1750239667.001947,1536
1750239667.0020208,2043
1750239667.0020947,2461
1750239667.0021682,2559
1750239667.0022414,2366
1750239667.0023153,2058
1750239667.0023885,1780
1750239667.0024617,1573
1750239667.002535,1376
1750239667.0242987,1268
1750239667.02441,1453
1750239667.024514,1935
1750239667.0246167,2402
1750239667.02472,2576
1750239667.0248225,2438
1750239667.024925,2139
1750239667.0250285,1843
1750239667.025131,1616
1750239667.0252779,1416
1750239667.1040282,1279
1750239667.145617,1407
1750239667.1607018,1850
1750239667.1607864,2342
1750239667.1608603,2570
1750239667.1609356,2482
1750239667.1610053,2201
1750239667.1610746,1901
1750239667.1611488,1665
1750239667.1612194,1463
1750239667.161288,1299
1750239667.161359,1370
1750239667.1614313,1769
1750239667.1615002,2282
1750239667.1615674,2566
1750239667.1616383,2521
1750239667.161707,2251
1750239667.1617787,1945
1750239667.1618474,1699
1750239667.161931,1500
1750239667.1620045,1319
1750239667.162076,1330
1750239667.162144,1672
1750239667.162213,2197
1750239667.162283,2546
1750239667.162352,2563
1750239667.1624203,2317
1750239667.1624923,1999
1750239667.1625645,1730
1750239667.1626346,1527
1750239667.1627014,1339
1750239667.1627696,1304
1750239667.1628397,1588
1750239667.1629035,2102
1750239667.1629655,2495
1750239667.163033,2567
1750239667.1631014,2357
1750239667.1631682,2046
1750239667.1632338,1766
1750239667.163296,1553
1750239667.163363,1350
1750239667.1634336,1262
1750239667.1635005,1485
1750239667.163568,1990
1750239667.1636386,2442
1750239667.163706,2582
1750239667.1637757,2414
1750239667.163848,2106
1750239667.1639156,1816
1750239667.163983,1598
1750239667.1640515,1396
1750239667.164119,1271
1750239667.1641893,1426
1750239667.1642568,1891
1750239667.1643262,2370
1750239667.1643932,2565
1750239667.1644626,2440
1750239667.1725926,2139
1750239667.1726754,1838
1750239667.1727433,1610
1750239667.1728103,1411
1750239667.1728773,1259
1750239667.172948,1356
1750239667.1730142,1777
1750239667.1730816,2281
1750239667.1731474,2538
1750239667.1732142,2470
1750239667.1732836,2193
1750239667.17335,1890
1750239667.1734164,1649
1750239667.173482,1446
1750239667.173551,1268
1750239667.1736178,1305
1750239667.1736841,1676
1750239667.17375,2196
1750239667.1738176,2510
1750239667.1738865,2493
1750239667.1739526,2235
1750239667.1740196,1930
1750239667.1751812,1681
1750239667.1752727,1484
1750239667.175378,1293
1750239667.1760557,1275
1750239667.1761265,1587
1750239667.1761951,2111
1750239667.1762624,2485
1750239667.1763287,2527
1750239667.1763945,2296
1750239667.1764603,1980
1750239667.1765254,1711
1750239667.1765912,1514
1750239667.1766574,1327
1750239667.1767232,1270
1750239667.1767895,1521
1750239667.1768584,2026
1750239667.1769245,2443
1750239667.1769898,2548
1750239667.1770556,2364
1750239667.1771212,2060
1750239667.177187,1778
1750239667.1772525,1567
1750239667.1773188,1371
1750239667.1773868,1277
1750239667.1774523,1481
1750239667.177518,1976
1750239667.1775835,2439
1750239667.1776488,2596
1750239667.1777146,2441
1750239667.1777802,2136
1750239667.1778464,1846
1750239667.1779118,1627
1750239667.1779776,1422
1750239667.1780436,1275
1750239667.1781094,1397
1750239667.1781754,1842
1750239667.1782415,2337
1750239667.1783075,2563
1750239667.178375,2470
1750239667.1784415,2188
1750239667.178508,1894
1750239667.1785939,1664
1750239667.17866,1464
1750239667.178726,1300
1750239667.1787927,1376
1750239667.1788583,1782
1750239667.178919,2294
1750239667.1789806,2567
1750239667.1790466,2514
1750239667.1791127,2244
1750239667.1791787,1943
1750239667.1792412,1701
1750239667.179302,1500
1750239667.1793678,1318
1750239667.179434,1337
1750239667.179503,1690
1750239667.1795683,2214
1750239667.1796339,2547
1750239667.1797001,2551
1750239667.1797657,2309
1750239667.1798315,2009
1750239667.179897,1755
1750239667.1799634,1549
1750239667.1800287,1345
1750239667.1800942,1303
1750239667.18016,1597
1750239667.1802256,2122
1750239667.1802912,2509
1750239667.1803575,2560
1750239667.1804225,2333
1750239667.180489,2027
1750239667.1805544,1770
1750239667.1806211,1575
1750239667.1806872,1373
1750239667.1807535,1281
1750239667.1808305,1507
1750239667.2069502,2020
1750239667.2070591,2467
1750239667.2071648,2585
1750239667.2072632,2394
1750239667.207328,2080
1750239667.2073958,1801
1750239667.2074704,1595
1750239667.2075472,1393
1750239667.2076228,1262
1750239667.2076974,1420
1750239667.207798,1897
1750239667.2078753,2386
1750239667.2079506,2582
1750239667.2080255,2452
1750239667.2080996,2149
1750239667.2081738,1851
1750239667.208254,1633
1750239667.2083433,1446
1750239667.2084203,1297
1750239667.2084982,1377
1750239667.208589,1759
1750239667.2086642,2222
1750239667.2087524,2465
1750239667.208918,2417
1750239667.2641459,2163
1750239667.3217404,1860
1750239667.3797047,1605
1750239667.3806622,1411
1750239667.398718,1278
1750239667.3989496,1372
1750239667.4006104,1766
1750239667.4007025,2266
1750239667.40103,2551
1750239667.4011047,2528
1750239667.4011776,2283
1750239667.4012501,1979
1750239667.4013228,1713
1750239667.4013958,1499
1750239667.4014678,1311
1750239667.4015403,1309
1750239667.4016128,1625
1750239667.4016852,2130
1750239667.4017577,2479
1750239667.4018297,2518
1750239667.4019284,2302
1750239667.4020016,2003
1750239667.4020743,1733
1750239667.4021459,1521
1750239667.4022183,1323
1750239667.40229,1272
1750239667.4023623,1539
1750239667.4024343,2052
1750239667.4030857,2464
1750239667.4031606,2560
1750239667.4032328,2371
1750239667.4281185,2068
1750239667.428844,1789
1750239667.4534879,1577
1750239667.4536,1378
1750239667.4537055,1273
1750239667.4538095,1458
1750239667.453913,1926
1750239667.4540179,2370
1750239667.4541204,2529
1750239667.454187,2390
1750239667.4542537,2095
1750239667.45432,1798
1750239667.454386,1571
1750239667.4544523,1376
1750239667.454518,1252
1750239667.4545844,1387
1750239667.4546502,1821
1750239667.4547157,2293
1750239667.4547818,2511
1750239667.454848,2425
1750239667.454909,2146
1750239667.4550514,1841
1750239667.4551184,1600
1750239667.4551852,1405
1750239667.455259,1264
1750239667.455413,1358
1750239667.455482,1764
1750239667.4555593,2269
1750239667.4556353,2546
1750239667.4557104,2507
1750239667.4557865,2246
1750239667.4558651,1941
1750239667.4559426,1692
1750239667.4560208,1497
1750239667.456103,1332
1750239667.4660456,1364
1750239667.4661376,1715
1750239667.466217,2228
1750239667.4662957,2563
1750239667.4663754,2579
1750239667.466454,2346
1750239667.4665327,2037
1750239667.4666104,1767
1750239667.4666884,1556
1750239667.4667668,1362
1750239667.4668453,1329
1750239667.4669232,1615
1750239667.4669917,2124
1750239667.467051,2509
1750239667.46713,2580
1750239667.4672077,2378
1750239667.4672868,2074
1750239667.467347,1799
1750239667.46742,1591
1750239667.4674988,1399
1750239667.4675765,1325
1750239667.467655,1554
1750239667.4677324,2047
1750239667.4678097,2473
1750239667.467897,2593
1750239667.467975,2420
1750239667.4680524,2117
1750239667.4681304,1833
1750239667.4682074,1620
1750239667.4682848,1422
1750239667.4683623,1304
1750239667.468439,1466
1750239667.4685163,1927
1750239667.4686105,2391
1750239667.4686894,2571
1750239667.468767,2443
1750239667.4688447,2151
1750239667.4689245,1859
1750239667.469002,1635
1750239667.4690793,1436
1750239667.469157,1288
1750239667.469234,1395
1750239667.469918,1824
1750239667.4699974,2322
1750239667.4700754,2565
1750239667.4701533,2487
1750239667.470231,2210
1750239667.4703088,1915
1750239667.4703865,1684
1750239667.4704638,1487
1750239667.4705412,1312
1750239667.4706187,1355
1750239667.4706967,1731
1750239667.4707744,2245
1750239667.4708526,2545
1750239667.4709306,2515
1750239667.4709973,2253
1750239667.4710574,1951
1750239667.4711332,1707
1750239667.471211,1507
1750239667.4712887,1311
1750239667.4713504,1295
1750239667.471428,1617
1750239667.4715059,2145
1750239667.4715836,2509
1750239667.4716606,2539
1750239667.4717383,2304
1750239667.4718235,2003
1750239667.4719126,1753
1750239667.4719784,1561
1750239667.4720457,1364
1750239667.4721122,1300
1750239667.4721804,1561
1750239667.4722586,2079
1750239667.4723353,2496
1750239667.472414,2583
1750239667.4724913,2377
1750239667.4725692,2067
1750239667.4726472,1799
1750239667.4727242,1602
1750239667.4728017,1406
1750239667.4728792,1301
1750239667.4729562,1496
1750239667.4730334,1992
1750239667.4731112,2459
1750239667.4731882,2618
1750239667.473265,2457
1750239667.478687,2145
1750239667.478763,1851
1750239667.4788325,1636
1750239667.4788957,1439
1750239667.4789553,1298
1750239667.4790208,1426
1750239667.479091,1876
1750239667.500148,2370
1750239667.5010483,2591
1750239667.5011945,2487
1750239667.5013232,2194
1750239667.501442,1893
1750239667.501561,1664
1750239667.5016794,1466
1750239667.5017982,1301
1750239667.5019343,1371
1750239667.5020533,1772
1750239667.5021718,2282
1750239667.5022898,2559
1750239667.5024073,2507
1750239667.5054116,2237
1750239667.5055385,1937
1750239667.5056698,1700
1750239667.5057895,1504
1750239667.5059066,1318
1750239667.5060236,1329
1750239667.506152,1673
1750239667.5062692,2192
1750239667.506385,2528
1750239667.5065036,2535
1750239667.5066314,2289
1750239667.506749,1982
1750239667.5071104,1730
1750239667.5099545,1538
1750239667.5100682,1353
1750239667.5101888,1317
1750239667.5102954,1598
1750239667.5104012,2100
1750239667.5105088,2475
1750239667.510654,2531
1750239667.5107563,2314
1750239667.5108583,2006
1750239667.5109591,1740
1750239667.5111842,1546
1750239667.5113685,1361
1750239667.511495,1288
1750239667.5119624,1516
1750239667.512884,2009
1750239667.5161994,2437
1750239667.5679147,2559
1750239667.5834649,2384
1750239667.630501,2079
1750239667.6717627,1798
1750239667.6968064,1592
1750239667.7194946,1400
1750239667.7242467,1282
1750239667.7246025,1442
1750239667.7249312,1906
1750239667.7251303,2377
1750239667.7252092,2561
1750239667.725972,2428
1750239667.726112,2127
1750239667.726198,1834
1750239667.7262793,1619
1750239667.7263594,1429
1750239667.7264402,1280
1750239667.726522,1378
1750239667.7266037,1801
1750239667.7266836,2303
1750239667.7587173,2552
1750239667.7821832,2473
1750239667.7970254,2187
1750239667.8004596,1885
1750239667.8008368,1659
1750239667.8053038,1475
1750239667.8054416,1308
1750239667.8055723,1347
1750239667.805717,1713
1750239667.805846,2223
1750239667.8059742,2528
1750239667.8061326,2506
1750239667.806262,2248
1750239667.8063908,1945
1750239667.806533,1703
1750239667.8066616,1516
1750239667.8067904,1334
1750239667.8069181,1320
1750239667.8070595,1630
1750239667.8071878,2141
1750239667.8081172,2497
1750239667.8083718,2530
1750239667.8084803,2301
1750239667.8090057,1997
1750239667.8091145,1741
1750239667.8092213,1549
1750239667.8093286,1360
1750239667.8094356,1301
1750239667.8095424,1554
1750239667.809649,2056
1750239667.8097558,2462
1750239667.8098626,2553
1750239667.8099694,2360
1750239667.8100882,2057
1750239667.8101943,1788
1750239667.8103015,1591
1750239667.8104086,1402
1750239667.8105154,1303
1750239667.810622,1496
1750239667.8107288,1971
1750239667.8108346,2413
1750239667.8163505,2559
1750239667.8164594,2405
1750239667.8453143,2110
1750239667.8580513,1829
1750239667.991827,1622
1750239667.9922445,1434
1750239667.993061,1307
1750239667.9931517,1443
1750239667.9932294,1887
1750239667.9933064,2363
1750239667.9933832,2569
1750239667.995767,2465
1750239667.99585,2183
1750239667.995926,1893
1750239667.9960017,1669
1750239667.996078,1472
1750239667.9961793,1312
1750239667.996256,1388
1750239667.9963317,1789
1750239667.9964075,2291
1750239667.996483,2556
1750239668.013958,2500
1750239668.0141163,2235
1750239668.0141914,1942
1750239668.0142655,1708
1750239668.0143383,1511
1750239668.0144117,1327
1750239668.0144856,1339
1750239668.0145698,1684
1750239668.0146425,2198
1750239668.014715,2525
1750239668.025758,2528
1750239668.0393026,2287
1750239668.0413845,1990
1750239668.041549,1743
1750239668.041667,1552
1750239668.0417838,1366
1750239668.041934,1334
1750239668.042052,1620
1750239668.0421689,2126
1750239668.0423534,2498
1750239668.0424433,2549
1750239668.042527,2334
1750239668.042609,2037
1750239668.0426912,1781
1750239668.042773,1586
1750239668.042854,1390
1750239668.0429354,1306
1750239668.0430155,1531
1750239668.0556638,2027
1750239668.0582447,2454
1750239668.0583544,2568
1750239668.0602448,2389
1750239668.0603547,2090
1750239668.0604594,1822
1750239668.0605626,1623
1750239668.0606604,1426
1750239668.0607362,1300
1750239668.0608118,1461
1750239668.0608866,1932
1750239668.0609608,2404
1750239668.0610352,2578
1750239668.0611098,2435
1750239668.0611851,2139
1750239668.06126,1866
1750239668.0613348,1668
1750239668.061409,1473
1750239668.0614839,1312
1750239668.0615582,1426
1750239668.0616329,1901
1750239668.0617144,2453
1750239668.0617845,2701
1750239668.0618587,2572
1750239668.0625136,2248
1750239668.0625925,1966
1750239668.0626707,1783
1750239668.08888,1590
1750239668.1184194,1357
1750239668.1188853,1358
1750239668.1194332,1788
1750239668.1202297,2420
1750239668.1206279,2780
1750239668.1210594,2698
1750239668.1214528,2350
1750239668.121845,2047
1750239668.1222644,1883
1750239668.122659,1718
1750239668.1230757,1440
1750239668.1234725,1321
1750239668.1238673,1659
1750239668.1254406,2323
1750239668.1258433,2785
1750239668.1270115,2764
1750239668.1271346,2409
1750239668.1295378,2081
1750239668.1308162,1928
1750239668.1309617,1804
1750239668.1323438,1529
1750239668.1324663,1326
1750239668.1326194,1571
1750239668.13274,2232
1750239668.1328597,2778
1750239668.1329794,2825
1750239668.133114,2477
1750239668.1332352,2118
1750239668.1334229,1956
1750239668.1335318,1862
1750239668.1336403,1600
1750239668.134177,1323
1750239668.1343846,1455
1750239668.1345787,2074
1750239668.134745,2689
1750239668.1350672,2822
1750239668.1352937,2502
1750239668.1354663,2110
1750239668.1356835,1926
1750239668.1358414,1862
1750239668.1360118,1650
1750239668.1361814,1344
1750239668.1363437,1375
1750239668.1364992,1929
1750239668.136661,2594
1750239668.1369762,2826
1750239668.1617713,2559
1750239668.189143,2138
1750239668.196121,1905
1750239668.2011561,1842
1750239668.2012374,1686
1750239668.2013953,1390
1750239668.2015321,1339
1750239668.2016158,1796
1750239668.2016983,2465
1750239668.2017808,2790
1750239668.201862,2613
1750239668.201959,2200
1750239668.2020423,1917
1750239668.2021244,1824
1750239668.2022066,1705
1750239668.2022886,1434
1750239668.2023704,1305
1750239668.2024527,1622
1750239668.2025342,2227
1750239668.202616,2611
1750239668.202698,2545
1750239668.2027795,2191
1750239668.2028608,1883
1750239668.202941,1740
1750239668.2030098,1626
1750239668.2030892,1395
1750239668.2031705,1270
1750239668.203252,1558
1750239668.2033253,2174
1750239668.203406,2625
1750239668.2034874,2618
1750239668.203569,2280
1750239668.2036505,1949
1750239668.2037323,1784
1750239668.2038136,1671
1750239668.2038949,1433
1750239668.203976,1258
1750239668.2040567,1509
1750239668.2041385,2173
1750239668.2042198,2732
1750239668.204301,2786
1750239668.204383,2431
1750239668.2044644,2056
1750239668.204546,1890
1750239668.2046273,1814
1750239668.2047083,1575
1750239668.20479,1285
1750239668.2048714,1370
1750239668.2049525,1957
1750239668.2050343,2597
1750239668.2051156,2791
1750239668.205197,2518
1750239668.205357,2120
1750239668.2054405,1900
1750239668.2055218,1825
1750239668.2293596,1648
1750239668.2303278,1351
1750239668.2303994,1289
1750239668.2306926,1679
1750239668.3076382,2240
1750239668.3112557,2513
1750239668.3113332,2377
1750239668.3114178,2033
1750239668.3115096,1752
1750239668.311595,1601
1750239668.3116813,1455
1750239668.311767,1264
1750239668.3118527,1279
1750239668.311954,1678
1750239668.3120403,2242
1750239668.3121262,2538
1750239668.3122115,2434
1750239668.3122964,2096
1750239668.3123827,1794
1750239668.312469,1621
1750239668.312555,1482
1750239668.3126407,1285
1750239668.3127265,1235
1750239668.3128133,1554
1750239668.3128996,2116
1750239668.33795,2494
1750239668.344778,2481
1750239668.34486,2186
1750239668.3449488,1875
1750239668.3450317,1677
1750239668.345115,1533
1750239668.345198,1326
1750239668.345295,1218
1750239668.3453777,1466
1750239668.34546,2018
1750239668.3510036,2463
1750239668.358072,2527
1750239668.3857055,2270
1750239668.386462,1949
1750239668.3865378,1729
1750239668.3866122,1581
1750239668.3866854,1375
1750239668.386761,1220
1750239668.386835,1397
1750239668.3869095,1931
1750239668.386983,2442
1750239668.3870559,2587
1750239668.3871315,2371
1750239668.3872778,2032
1750239668.3873434,1779
1750239668.387417,1623
1750239668.3874896,1432
1750239668.3875623,1246
1750239668.3876343,1345
1750239668.387705,1826
1750239668.3877773,2371
1750239668.3878496,2593
1750239668.3879213,2437
1750239668.3879907,2104
1750239668.3880534,1827
1750239668.3881264,1653
1750239668.3882053,1473
1750239668.3882773,1275
1750239668.3883498,1316
1750239668.3884213,1739
1750239668.3884933,2297
1750239668.3885798,2584
1750239668.388653,2490
1750239668.3887258,2171
1750239668.3887985,1870
1750239668.3888755,1669
1750239668.3889506,1498
1750239668.3890257,1299
1750239668.389101,1278
1750239668.3891757,1607
1750239668.3892505,2131
1750239668.3893259,2468
1750239668.389404,2460
1750239668.3894844,2194
1750239668.3895624,1881
1750239668.38964,1639
1750239668.389718,1466
1750239668.3897972,1293
1750239668.3898752,1256
1750239668.3899536,1517
1750239668.3900313,1994
1750239668.3901103,2355
1750239668.3901882,2421
1750239668.3902662,2221
1750239668.3903465,1912
1750239668.390426,1628
1750239668.3905034,1427
1750239668.3905816,1267
1750239668.3906593,1233
1750239668.3907378,1471
1750239668.390816,1931
1750239668.3908942,2317
1750239668.3909717,2428
1750239668.3910506,2274
1750239668.3911285,1985
1750239668.3912065,1691
1750239668.3912842,1467
1750239668.3913617,1288
1750239668.3914394,1218
1750239668.3915174,1423
1750239668.3915946,1895
1750239668.3916724,2345
1750239668.39175,2519
1750239668.3918283,2397
1750239668.4204907,2110
1750239668.4211967,1814
1750239668.4248078,1583
1750239668.4288585,1387
1750239668.429031,1253
1750239668.4291165,1370
1750239668.4292345,1795
1750239668.4293196,2284
1750239668.429403,2526
1750239668.4294865,2455
1750239668.4295707,2180
1750239668.429677,1876
1750239668.4297607,1630
1750239668.429844,1430
1750239668.429927,1268
1750239668.4300103,1331
1750239668.4313042,1718
1750239668.431971,2234
1750239668.4320886,2540
1750239668.4321756,2524
1750239668.4322622,2266
1750239668.4328163,1950
1750239668.432898,1685
1750239668.4329755,1483
1750239668.433053,1304
1750239668.4331284,1298
1750239668.433206,1594
1750239668.4332833,2075
1750239668.4333658,2416
1750239668.433442,2466
1750239668.4335182,2262
1750239668.4335923,1954
1750239668.433668,1666
1750239668.4337437,1451
1750239668.433819,1282
1750239668.4338953,1268
1750239668.4339712,1542
1750239668.434045,2021
1750239668.4341207,2391
1750239668.4341962,2477
1750239668.4342713,2301
1750239668.434347,2003
1750239668.434422,1705
1750239668.4344957,1475
1750239668.4345717,1287
1750239668.434648,1226
1750239668.4347234,1448
1750239668.434799,1922
1750239668.435485,2347
1750239668.435561,2498
1750239668.4356363,2369
1750239668.4357107,2084
1750239668.4385362,1785
1750239668.4396567,1552
1750239668.4403174,1360
1750239668.4403946,1257
1750239668.4405375,1409
1750239668.440667,1836
1750239668.4453099,2280
1750239668.4453876,2479
1750239668.445461,2396
1750239668.445534,2131
1750239668.4456067,1829
1750239668.445679,1575
1750239668.445751,1367
1750239668.4458232,1231
1750239668.4458957,1349
1750239668.4459682,1780
1750239668.4460404,2288
1750239668.4461122,2551
1750239668.4461846,2497
1750239668.4462574,2230
1750239668.4463296,1927
1750239668.4464016,1677
1750239668.4464734,1472
1750239668.4465454,1293
1750239668.4466178,1322
1750239668.4466898,1682
1750239668.4467623,2200
1750239668.446834,2524
1750239668.4469063,2523
1750239668.4469705,2279
1750239668.4470344,1979
1750239668.4471064,1726
1750239668.447185,1519
1750239668.4472568,1315
1750239668.4473166,1275
1750239668.447388,1566
1750239668.44746,2082
1750239668.4475315,2462
1750239668.447604,2516
1750239668.447676,2298
1750239668.447748,1996
1750239668.4478195,1736
1750239668.447891,1541
1750239668.4479623,1350
1750239668.4480338,1275
1750239668.448106,1507
1750239668.4481776,2005
1750239668.4482498,2428
1750239668.448322,2542
1750239668.4483938,2364
1750239668.4484658,2062
1750239668.4485373,1783
1750239668.4486117,1574
1750239668.4486842,1381
1750239668.4487565,1276
1750239668.448829,1456
1750239668.4489024,1931
1750239668.4489744,2396
1750239668.4490476,2571
1750239668.4491272,2438
1750239668.4491997,2142
1750239668.4492714,1850
1750239668.4493442,1633
1750239668.4494166,1446
1750239668.4494886,1307
1750239668.4814336,1406
1750239668.482379,1806
1750239668.482468,2270
1750239668.4825587,2501
1750239668.4826396,2434
1750239668.4827206,2168
1750239668.4828014,1866
1750239668.4828818,1620
1750239668.482957,1423
1750239668.48302,1278
1750239668.4830992,1366
1750239668.483178,1774
1750239668.4832563,2292
1750239668.4833193,2578
1750239668.4833894,2535
1750239668.4834685,2264
1750239668.4835474,1955
1750239668.4836266,1707
1750239668.483705,1509
1750239668.483784,1322
1750239668.483863,1317
1750239668.4839416,1643
1750239668.48402,2166
1750239668.484099,2526
1750239668.4841866,2554
1750239668.5053613,2316
1750239668.506017,2004
1750239668.5060902,1739
1750239668.506171,1536
1750239668.530104,1338
1750239668.5332305,1280
1750239668.53334,1540
1750239668.5334444,2051
1750239668.5335486,2462
1750239668.5336616,2559
1750239668.5337648,2365
1750239668.5338688,2052
1750239668.5339713,1765
1750239668.5340743,1554
1750239668.5341773,1367
1750239668.534281,1281
1750239668.5343835,1474
1750239668.5344872,1930
1750239668.53459,2348
1750239668.534693,2492
1750239668.5347958,2357
1750239668.5348992,2074
1750239668.5351017,1783
1750239668.5352054,1553
1750239668.5354035,1355
1750239668.535507,1244
1750239668.5356102,1406
1750239668.5357184,1861
1750239668.535821,2332
1750239668.5377047,2533
1750239668.5378103,2426
1750239668.5379145,2139
1750239668.5380192,1839
1750239668.5381224,1609
1750239668.542,1423
1750239668.5421336,1288
1750239668.5422387,1392
1750239668.542342,1808
1750239668.5424454,2310
1750239668.5425484,2572
1750239668.5426507,2512
1750239668.542754,2236
1750239668.542858,1929
1750239668.5430765,1686
1750239668.5432029,1489
1750239668.5433855,1314
1750239668.5435042,1342
1750239668.5436084,1698
1750239668.6451278,2220
1750239668.692647,2552
1750239668.6930492,2556
1750239668.703496,2309
1750239668.70357,2000
1750239668.7037008,1742
1750239668.704054,1538
1750239668.7041247,1343
1750239668.7041917,1313
1750239668.704258,1613
1750239668.7043252,2139
1750239668.7043917,2529
1750239668.704458,2589
1750239668.7045243,2366
