1749980095.4412057,1975
1749980095.5095038,1629
1749980095.5944414,1323
1749980095.6176543,1095
1749980095.6177568,1044
1749980095.6186216,1280
1749980095.622236,1740
1749980095.6242077,2165
1749980095.6278975,2361
1749980095.6298218,2296
1749980095.6303203,2034
1749980095.6313286,1687
1749980095.633099,1368
1749980095.6339798,1126
1749980095.6343727,1038
1749980095.6347067,1228
1749980095.6350584,1662
1749980095.6354554,2105
1749980095.6358118,2340
1749980095.6362119,2319
1749980095.6365418,2085
1749980095.6368706,1749
1749980095.637243,1419
1749980095.652582,1160
1749980095.6527696,1032
1749980095.6529698,1171
1749980095.6531465,1577
1749980095.6532102,2043
1749980095.6534257,2324
1749980095.6536045,2350
1749980095.6537955,2145
1749980095.6541963,1816
1749980095.6543634,1474
1749980095.6546605,1200
1749980095.6548653,1041
1749980095.655081,1132
1749980095.6552927,1501
1749980095.655506,1973
1749980095.6556861,2286
1749980095.6558392,2350
1749980095.6559916,2180
1749980095.6561408,1872
1749980095.656293,1530
1749980095.656448,1241
1749980095.6566133,1046
1749980095.6567667,1082
1749980095.6569204,1412
1749980095.657074,1893
1749980095.657353,2247
1749980095.6592662,2353
1749980095.6602595,2212
1749980095.6603687,1919
1749980095.6604712,1577
1749980095.6605668,1280
1749980095.6606836,1062
1749980095.6607854,1045
1749980095.660883,1321
1749980095.6609795,1789
1749980095.6610918,2176
1749980095.6611793,2326
1749980095.6612747,2225
1749980095.6613717,1954
1749980095.6614687,1615
1749980095.6615822,1310
1749980095.6616793,1080
1749980095.6617916,1027
1749980095.6618893,1263
1749980095.662006,1720
1749980095.6620967,2137
1749980095.662194,2327
1749980095.6624324,2264
1749980095.6625073,2010
1749980095.6659372,1671
1749980095.6660035,1351
1749980095.6818395,1103
1749980095.6824448,1006
1749980095.682556,1189
1749980095.682661,1620
1749980095.6842,2062
1749980095.688402,2298
1749980095.688908,2284
1749980095.689402,2061
1749980095.6899168,1733
1749980095.6904368,1404
1749980095.6912222,1139
1749980095.6917467,1004
1749980095.692274,1140
1749980095.692788,1546
1749980095.6932817,2012
1749980095.693834,2288
1749980095.6946578,2306
1749980095.695154,2100
1749980095.6990936,1779
1749980095.7038379,1447
1749980095.7044547,1176
1749980095.7076209,1010
1749980095.7184541,1089
1749980095.7191114,1452
1749980095.7197828,1930
1749980095.7205129,2255
1749980095.721003,2326
1749980095.7214677,2156
1749980095.7272232,1848
1749980095.7288105,1510
1749980095.72933,1227
1749980095.7299902,1033
1749980095.7313378,1061
1749980095.7319508,1380
1749980095.7351806,1859
1749980095.7356749,2221
1749980095.739213,2336
1749980095.740069,2200
1749980095.740566,1906
1749980095.7411108,1564
1749980095.7419446,1271
1749980095.7430122,1060
1749980095.775643,1043
1749980095.7852194,1314
1749980095.7853653,1781
1749980095.7855,2173
1749980095.7856338,2328
1749980095.7857673,2231
1749980095.785901,1957
1749980095.7860286,1614
1749980095.7861593,1309
1749980095.7862964,1078
1749980095.7864332,1019
1749980095.78657,1244
1749980095.786707,1696
1749980095.7868435,2118
1749980095.786981,2317
1749980095.7871182,2261
1749980095.7872548,2012
1749980095.7900975,1676
1749980095.7902398,1359
1749980095.7904172,1111
1749980095.790714,1010
1749980095.7909102,1185
1749980095.7910476,1615
1749980095.7913465,2067
1749980095.7914383,2311
1749980095.7915287,2296
1749980095.791619,2063
1749980095.791717,1727
1749980095.7918086,1401
1749980095.828017,1147
1749980095.828098,1015
1749980095.828172,1139
1749980095.8282459,1530
1749980095.8283188,1994
1749980095.8284063,2280
1749980095.82848,2311
1749980095.8285527,2108
1749980095.8286257,1780
1749980095.8286982,1441
1749980095.8287709,1170
1749980095.8288434,1007
1749980095.8289154,1085
1749980095.8289878,1445
1749980095.8290608,1925
1749980095.829128,2258
1749980095.8291886,2339
1749980095.829261,2174
1749980095.8293333,1863
1749980095.8294134,1517
1749980095.8294806,1231
1749980095.8295553,1039
1749980095.8296232,1068
1749980095.8296926,1382
1749980095.829768,1855
1749980095.829838,2218
1749980095.829908,2340
1749980095.8299682,2213
1749980095.8300323,1921
1749980095.8300998,1572
1749980095.8301685,1274
1749980095.8302379,1063
1749980095.830306,1043
1749980095.834463,1296
1749980095.8600426,1737
1749980095.8925874,2116
1749980095.8928878,2283
1749980095.8931243,2210
1749980095.8933415,1947
1749980095.8935735,1594
1749980095.8937945,1274
1749980095.9666383,1047
1749980095.997088,1005
1749980095.9971688,1245
1749980095.997242,1697
1749980095.9973092,2113
1749980095.9973936,2312
1749980095.9974933,2265
1749980095.9975655,2020
1749980095.9977255,1678
1749980095.997837,1350
1749980096.0072987,1098
1749980096.0074325,999
1749980096.007529,1178
1749980096.0076377,1605
1749980096.0077817,2054
1749980096.0078692,2301
1749980096.0079558,2296
1749980096.0081096,2077
1749980096.0081904,1746
1749980096.0082664,1413
1749980096.0083525,1146
1749980096.0084605,1004
1749980096.0085366,1124
1749980096.0086122,1515
1749980096.0086863,1982
1749980096.008761,2275
1749980096.0088353,2317
1749980096.0089083,2126
1749980096.008982,1806
1749980096.0090544,1465
1749980096.0091274,1186
1749980096.0092006,1014
1749980096.009273,1082
1749980096.0093455,1433
1749980096.009418,1907
1749980096.00949,2239
1749980096.0095615,2323
1749980096.009634,2160
1749980096.0097063,1851
1749980096.0097785,1503
1749980096.0098503,1215
1749980096.0099227,1024
1749980096.0099924,1054
1749980096.0100524,1372
1749980096.0101242,1852
1749980096.0101962,2219
1749980096.0102756,2340
1749980096.0103478,2208
1749980096.0104196,1915
1749980096.0104914,1567
1749980096.0105634,1265
1749980096.0106356,1043
1749980096.0107071,1016
1749980096.010779,1284
1749980096.0108552,1761
1749980096.0109286,2173
1749980096.011521,2344
1749980096.0371928,2250
1749980096.0578442,1968
1749980096.0579739,1616
1749980096.075239,1304
1749980096.087924,1075
1749980096.1119826,1016
1749980096.138579,1240
1749980096.152245,1695
1749980096.1523218,2134
1749980096.1524012,2355
1749980096.152479,2317
1749980096.152555,2071
1749980096.1526322,1726
1749980096.152708,1393
1749980096.1527836,1134
1749980096.1528592,1025
1749980096.1529343,1197
1749980096.1530097,1628
1749980096.1530855,2091
1749980096.1531622,2352
1749980096.1574168,2356
1749980096.1575246,2138
1749980096.1576052,1807
1749980096.1576843,1470
1749980096.157763,1198
1749980096.157844,1052
1749980096.157923,1169
1749980096.1579955,1563
1749980096.1580563,2033
1749980096.158136,2327
1749980096.158214,2367
1749980096.158293,2178
1749980096.158385,1865
1749980096.1584623,1531
1749980096.1585412,1255
1749980096.1586208,1081
1749980096.1587,1148
1749980096.1587787,1503
1749980096.158859,1985
1749980096.1589384,2322
1749980096.1590166,2405
1749980096.1590953,2243
1749980096.1591737,1937
1749980096.1592517,1592
1749980096.1593258,1300
1749980096.159397,1097
1749980096.1594687,1117
1749980096.1597028,1435
1749980096.1598043,1924
1749980096.1598775,2302
1749980096.1599522,2428
1749980096.1600251,2299
1749980096.1600983,2009
1749980096.1601717,1666
1749980096.160249,1368
1749980096.1603236,1146
1749980096.1604218,1114
1749980096.160509,1375
1749980096.1605885,1843
1749980096.1919913,2248
1749980096.1921105,2415
1749980096.1922202,2324
1749980096.1928113,2052
1749980096.1929233,1707
1749980096.193032,1393
1749980096.1931462,1153
1749980096.2354927,1080
1749980096.235737,1294
1749980096.2361307,1745
1749980096.2362435,2178
1749980096.2363162,2390
1749980096.2418807,2343
1749980096.241965,2093
1749980096.2420378,1749
1749980096.2420993,1419
1749980096.242169,1159
1749980096.2422416,1046
1749980096.2423189,1214
1749980096.2423918,1645
1749980096.2424645,2106
1749980096.242539,2362
1749980096.2426114,2356
1749980096.2426844,2130
1749980096.2427576,1797
1749980096.2428303,1464
1749980096.2429035,1196
1749980096.2429762,1047
1749980096.2430484,1156
1749980096.2431211,1539
1749980096.243194,2005
1749980096.2432668,2299
1749980096.24334,2341
1749980096.2434127,2152
1749980096.2434835,1836
1749980096.2435563,1495
1749980096.2436287,1212
1749980096.2437012,1031
1749980096.243774,1093
1749980096.2438457,1444
1749980096.243918,1923
1749980096.2439902,2257
1749980096.2440624,2342
1749980096.244135,2183
1749980096.2442074,1880
1749980096.244286,1536
1749980096.2443583,1244
1749980096.2444305,1043
1749980096.244503,1062
1749980096.244575,1374
1749980096.2446475,1856
1749980096.2447193,2230
1749980096.2447917,2357
1749980096.244864,2234
1749980096.2449365,1945
1749980096.2450123,1596
1749980096.245188,1287
1749980096.245256,1059
1749980096.245322,1027
1749980096.2453883,1291
1749980096.245454,1764
1749980096.2455196,2175
1749980096.2455864,2352
1749980096.2456524,2270
1749980096.2457182,2001
1749980096.259892,1651
1749980096.3089755,1330
1749980096.3468695,1089
1749980096.346989,1020
1749980096.3470995,1239
1749980096.3507135,1692
1749980096.3508294,2131
1749980096.3509388,2355
1749980096.3510485,2321
1749980096.3511777,2078
1749980096.3512871,1732
1749980096.351396,1394
1749980096.3515046,1130
1749980096.3516262,1015
1749980096.3517473,1180
1749980096.3592887,1606
1749980096.3593688,2067
1749980096.3594437,2329
1749980096.3595066,2333
1749980096.3595707,2114
1749980096.3596437,1780
1749980096.3597147,1440
1749980096.3597875,1166
1749980096.3598602,1015
1749980096.359933,1128
1749980096.3602426,1521
1749980096.3603244,2003
1749980096.3603954,2313
1749980096.3604674,2364
1749980096.3605409,2172
1749980096.3606136,1844
1749980096.3606863,1490
1749980096.3607588,1201
1749980096.3608317,1021
1749980096.360905,1087
1749980096.3609776,1442
1749980096.3610506,1926
1749980096.3611183,2269
1749980096.3611786,2362
1749980096.3612478,2211
1749980096.3613186,1909
1749980096.361391,1561
1749980096.3614633,1263
1749980096.3615355,1059
1749980096.3616078,1077
1749980096.36168,1389
1749980096.377394,1870
1749980096.3776984,2241
1749980096.3790922,2365
1749980096.3792021,2239
1749980096.379305,1949
1749980096.3794093,1599
1749980096.379512,1290
1749980096.3956783,1061
1749980096.456223,1027
1749980096.520456,1289
1749980096.520562,1763
1749980096.520642,2179
1749980096.520761,2358
1749980096.520843,2278
1749980096.5209243,2010
1749980096.5210059,1661
1749980096.521087,1341
1749980096.5211775,1097
1749980096.521239,1020
1749980096.521318,1229
1749980096.5214012,1677
1749980096.5214815,2113
1749980096.5215678,2332
1749980096.5216491,2297
1749980096.5217445,2059
1749980096.5218256,1724
1749980096.5219069,1396
1749980096.5219853,1135
1749980096.5220535,1012
1749980096.522134,1167
1749980096.5222144,1585
1749980096.5222952,2042
1749980096.5223756,2300
1749980096.5224555,2303
1749980096.522535,2087
1749980096.522618,1762
1749980096.5226994,1432
1749980096.5227802,1164
1749980096.5228593,1013
1749980096.5229394,1119
1749980096.523019,1502
1749980096.5231004,1972
1749980096.5231812,2269
1749980096.5232618,2312
1749980096.5235386,2122
1749980096.5236194,1806
1749980096.5236945,1469
1749980096.5237699,1191
1749980096.523845,1011
1749980096.5239196,1068
1749980096.5239944,1410
1749980096.5240693,1886
1749980096.5241446,2225
1749980096.52422,2317
1749980096.5242946,2166
1749980096.5243723,1868
1749980096.5244482,1524
1749980096.524523,1227
1749980096.5245986,1016
1749980096.5246732,1021
1749980096.5247478,1323
1749980096.524825,1803
1749980096.5248997,2181
1749980096.5249748,2313
1749980096.5250638,2193
1749980096.5251384,1907
1749980096.525199,1561
1749980096.525271,1257
1749980096.5253463,1030
1749980096.5254214,991
1749980096.5255032,1242
1749980096.5255806,1707
1749980096.5256574,2121
1749980096.5257318,2306
1749980096.5258071,2237
1749980096.5258827,1979
1749980096.5259573,1637
1749980096.52602,1318
1749980096.5260928,1066
1749980096.5261676,973
1749980096.5262423,1166
1749980096.5263174,1604
1749980096.5263917,2042
1749980096.5264668,2269
1749980096.5265415,2237
1749980096.5266163,1998
1749980096.5266907,1662
1749980096.5267658,1342
1749980096.5268407,1092
1749980096.5269732,978
1749980096.638938,1131
1749980096.6390836,1544
1749980096.6391745,2003
1749980096.639743,2272
1749980096.6460166,2286
1749980096.6461005,2074
1749980096.6461804,1743
1749980096.6462588,1406
1749980096.6463363,1137
1749980096.6464136,987
1749980096.646491,1091
1749980096.6465688,1471
1749980096.6466458,1941
1749980096.6467226,2246
1749980096.6467998,2300
1749980096.6468768,2119
1749980096.6469545,1803
1749980096.6470313,1460
1749980096.6471086,1175
1749980096.647185,990
1749980096.6472619,1043
1749980096.6473498,1388
1749980096.6474266,1874
1749980096.6475031,2225
1749980096.64758,2322
1749980096.6476562,2164
1749980096.6477327,1854
1749980096.6478093,1503
1749980096.6478853,1208
1749980096.6479619,1002
1749980096.6480384,1006
1749980096.6481147,1301
1749980096.653079,1777
1749980096.6573293,2164
1749980096.657409,2310
1749980096.6574833,2197
1749980096.6575577,1908
1749980096.6576304,1553
1749980096.657703,1243
1749980096.6577754,1017
1749980096.657847,981
1749980096.6579192,1238
1749980096.6579912,1710
1749980096.6580644,2134
1749980096.6581366,2324
1749980096.658209,2250
1749980096.6582806,1980
1749980096.6583533,1628
1749980096.658448,1306
1749980096.6585202,1060
1749980096.6585922,977
1749980096.658664,1181
1749980096.6587355,1632
1749980096.658807,2082
1749980096.6588788,2314
1749980096.6589503,2279
1749980096.6590219,2032
1749980096.6590936,1689
1749980096.6591725,1361
1749980096.659244,1102
1749980096.6593153,976
1749980096.659388,1122
1749980096.659461,1538
1749980096.6595335,2011
1749980096.6596057,2291
1749980096.6596777,2305
1749980096.659749,2085
1749980096.6598206,1744
1749980096.6598923,1400
1749980096.6599634,1126
1749980096.660035,970
1749980096.6601062,1070
1749980096.660178,1452
1749980096.6602473,1935
1749980096.6603177,2254
1749980096.6603878,2312
1749980096.6604586,2123
1749980096.660529,1796
1749980096.6605985,1449
1749980096.6606688,1169
1749980096.6607387,991
1749980096.6608088,1046
1749980096.660879,1389
1749980096.660949,1875
1749980096.661019,2233
1749980096.6610892,2340
1749980096.661161,2192
1749980096.6612308,1884
1749980096.6613007,1529
1749980096.6613705,1230
1749980096.66144,1021
1749980096.66151,1025
1749980096.6615798,1321
1749980096.6616502,1802
1749980096.6954713,2192
1749980096.7319922,2339
1749980096.7984087,2226
1749980096.8001072,1937
1749980096.800202,1584
1749980096.8004143,1276
1749980096.8004909,1049
1749980096.8005662,1007
1749980096.8006415,1257
1749980096.8007252,1727
1749980096.8007932,2155
1749980096.8008664,2350
1749980096.8009362,2280
1749980096.801008,2011
1749980096.8010802,1658
1749980096.802119,1334
1749980096.8021936,1087
1749980096.802315,1001
1749980096.8024523,1199
1749980096.8025603,1645
1749980096.8026319,2093
1749980096.8027134,2325
1749980096.8027844,2293
1749980096.8028553,2047
1749980096.8029265,1702
1749980096.8029978,1370
1749980096.803068,1110
1749980096.8031392,989
1749980096.811726,1140
1749980096.8120706,1558
1749980096.8123913,2027
1749980096.8127205,2304
1749980096.8130388,2321
1749980096.8133578,2106
1749980096.8136764,1769
1749980096.8139956,1422
1749980096.814318,1144
1749980096.8146355,989
1749980096.814955,1093
1749980096.8821354,1477
1749980096.8920612,1958
1749980096.892141,2273
1749980096.8922143,2335
1749980096.892287,2156
1749980096.8923593,1837
1749980096.8924322,1486
1749980096.8925042,1194
1749980096.8925765,1005
1749980096.8926492,1054
1749980096.8927212,1393
1749980096.8927934,1873
1749980096.8928654,2222
1749980096.892938,2321
1749980096.8930106,2172
1749980096.8930826,1871
1749980096.8931448,1523
1749980096.8932133,1225
1749980096.893285,1015
1749980096.8933568,1018
1749980096.8934288,1316
1749980096.8935006,1799
1749980096.893572,2191
1749980096.8936439,2336
1749980096.8937142,2221
1749980096.8937857,1930
1749980096.895082,1575
1749980096.9285817,1261
1749980096.9410143,1028
1749980096.941177,980
1749980096.9412382,1227
1749980096.942204,1695
1749980096.9424458,2121
1749980096.9425535,2315
1749980096.9426582,2246
1749980096.9431217,1979
1749980096.9432292,1628
1749980096.9433029,1305
1749980096.943376,1058
1749980096.9434485,972
1749980096.9435208,1169
1749980096.9435935,1613
1749980096.9436665,2062
1749980096.9437394,2298
1749980096.9696198,2270
1749980097.0362637,2028
1749980097.065693,1684
1749980097.169915,1352
1749980097.184132,1092
1749980097.184688,967
1749980097.184799,1111
1749980097.1849084,1525
1749980097.1850173,1996
1749980097.1852245,2278
1749980097.1853554,2298
1749980097.1854653,2085
1749980097.186194,1749
1749980097.1863055,1406
1749980097.186428,1131
1749980097.1865368,971
1749980097.1866443,1065
1749980097.1867526,1443
1749980097.1868734,1928
1749980097.1869829,2251
1749980097.1870904,2315
1749980097.1871977,2130
1749980097.1873183,1807
1749980097.1874254,1458
1749980097.187533,1174
1749980097.1898022,990
1749980097.1898785,1038
1749980097.1899405,1376
1749980097.1901634,1862
1749980097.190239,2222
1749980097.1903114,2332
1749980097.1903777,2188
1749980097.1904442,1885
1749980097.1905417,1536
1749980097.192268,1239
1749980097.192348,1029
1749980097.1924167,1028
1749980097.1924863,1320
1749980097.1926062,1800
1749980097.1926806,2193
1749980097.1927507,2344
1749980097.192819,2235
1749980097.193024,1950
1749980097.1930852,1599
1749980097.1932862,1288
1749980097.193401,1054
1749980097.1934752,1004
1749980097.193543,1251
1749980097.1936128,1723
1749980097.19416,2152
1749980097.1942286,2344
1749980097.1943324,2269
1749980097.194408,1999
1749980097.1944766,1651
1749980097.1949244,1334
1749980097.1950128,1091
1749980097.1951025,1001
1749980097.1951723,1196
1749980097.1952443,1641
1749980097.195316,2096
1749980097.1953838,2336
1749980097.1954525,2309
1749980097.1955194,2064
1749980097.1955922,1716
1749980097.1956618,1378
1749980097.1957333,1112
1749980097.195805,982
1749980097.1958768,1128
1749980097.195948,1545
1749980097.1960194,2021
1749980097.196088,2304
1749980097.1961553,2322
1749980097.1962242,2103
1749980097.196293,1762
1749980097.1963627,1414
1749980097.1964295,1141
1749980097.196497,988
1749980097.1965694,1089
1749980097.1966376,1469
1749980097.1967096,1953
1749980097.1967816,2279
1749980097.19685,2352
1749980097.1969218,2177
1749980097.1969943,1854
1749980097.1970553,1495
1749980097.1972373,1199
1749980097.1973042,1011
1749980097.1973724,1061
1749980097.1974387,1400
1749980097.197508,1882
1749980097.197575,2239
1749980097.1976435,2351
1749980097.1977124,2214
1749980097.1977785,1913
1749980097.1978452,1555
1749980097.1979172,1245
1749980097.1981177,1031
1749980097.198192,1037
1749980097.1982594,1342
1749980097.1983285,1830
1749980097.198404,2223
1749980097.1984735,2367
1749980097.1985424,2254
1749980097.198611,1968
1749980097.198678,1615
1749980097.1987455,1300
1749980097.1988144,1064
1749980097.198882,1013
1749980097.198977,1256
1749980097.1990461,1722
1749980097.1997988,2146
1749980097.1998827,2339
1749980097.1999578,2271
1749980097.2000296,2005
1749980097.2001042,1650
1749980097.200179,1318
1749980097.2002485,1063
1749980097.2003155,975
1749980097.2003853,1178
1749980097.200452,1628
1749980097.2005174,2079
1749980097.2005775,2310
1749980097.2006385,2278
1749980097.251374,2033
1749980097.2646122,1685
1749980097.2650027,1345
1749980097.2654128,1079
1749980097.2657726,954
1749980097.2725277,1104
1749980097.2804577,1524
1749980097.2811844,1997
1749980097.2812557,2277
1749980097.2813227,2294
1749980097.281389,2079
1749980097.2817554,1743
1749980097.2818282,1396
1749980097.2818952,1116
1749980097.2819548,954
1749980097.2910018,1048
1749980097.2920368,1430
1749980097.2922914,1921
1749980097.292509,2251
1749980097.2927787,2317
1749980097.292848,2132
1749980097.292916,1807
1749980097.2929847,1456
1749980097.2930481,1170
1749980097.2931085,986
1749980097.2931764,1032
1749980097.2932434,1367
1749980097.29331,1851
1749980097.2933788,2210
1749980097.2934465,2316
1749980097.293513,2168
1749980097.2935815,1863
1749980097.2936497,1512
1749980097.293716,1213
1749980097.2937841,1003
1749980097.3535378,1002
1749980097.3536217,1295
1749980097.354389,1778
1749980097.3544629,2176
1749980097.3545318,2329
1749980097.4389184,2220
1749980097.4439619,1934
1749980097.4647613,1580
1749980097.5178752,1266
1749980097.542844,1034
1749980097.5605202,985
1749980097.5608058,1229
1749980097.5617642,1697
1749980097.5661993,2125
1749980097.5664508,2323
1749980097.5666468,2260
1749980097.5668278,2000
1749980097.5670054,1652
1749980097.5671775,1325
1749980097.5673485,1071
1749980097.5675275,977
1749980097.5676997,1169
1749980097.5678844,1614
1749980097.6074624,2068
1749980097.6075628,2308
1749980097.6076446,2285
1749980097.6077244,2046
1749980097.6078057,1703
1749980097.6078854,1369
1749980097.607967,1109
1749980097.6080477,983
1749980097.6081283,1125
1749980097.6082084,1535
1749980097.6082895,2006
1749980097.6083798,2292
1749980097.608461,2318
1749980097.608541,2106
1749980097.608621,1768
1749980097.608699,1418
1749980097.608777,1139
1749980097.6088502,979
1749980097.6089175,1072
1749980097.6090603,1446
1749980097.654802,1930
1749980097.6597068,2258
1749980097.6600318,2331
1749980097.6603322,2154
1749980097.6606042,1831
1749980097.6656022,1475
1749980097.6682744,1183
1749980097.6683807,995
1749980097.6684623,1041
1749980097.6685402,1375
1749980097.6686177,1858
1749980097.6687505,2218
1749980097.6688287,2331
1749980097.668906,2192
1749980097.669013,1892
1749980097.6691074,1537
1749980097.669189,1233
1749980097.6692681,1022
1749980097.6693466,1021
1749980097.6694257,1313
1749980097.6695044,1792
1749980097.669583,2186
1749980097.6696622,2340
1749980097.6697488,2239
1749980097.669827,1958
1749980097.6699052,1603
1749980097.6699831,1283
1749980097.6700618,1045
1749980097.6701396,993
1749980097.6702187,1237
1749980097.670298,1704
1749980097.6703799,2132
1749980097.6704497,2330
1749980097.6705198,2268
1749980097.6705894,2007
1749980097.6706593,1658
1749980097.6707292,1329
1749980097.670799,1077
1749980097.6708686,983
1749980097.6709387,1175
1749980097.6710083,1619
1749980097.6710777,2075
1749980097.6711473,2320
1749980097.7021973,2302
1749980097.7158787,2064
1749980097.7163134,1719
1749980097.7166598,1381
1749980097.7171438,1118
1749980097.7174945,991
1749980097.7178307,1133
1749980097.7183158,1540
1749980097.7186952,2007
1749980097.7190595,2288
1749980097.7193997,2314
1749980097.719738,2108
1749980097.7200782,1777
1749980097.7204087,1429
1749980097.7207472,1149
1749980097.721213,987
1749980097.721555,1077
1749980097.7996182,1448
1749980097.920131,1926
1749980097.9237888,2247
1749980097.9258711,2318
1749980097.9265037,2145
1749980097.927401,1830
1749980097.9276524,1480
1749980097.9278479,1190
1749980097.9280415,1002
1749980097.9282346,1046
1749980097.9477143,1377
1749980097.9566908,1859
1749980097.9567652,2217
1749980097.95684,2329
1749980097.956907,2191
1749980097.9569736,1894
1749980097.9570365,1543
1749980097.957096,1242
1749980097.9571621,1032
1749980097.966549,1028
1749980097.9675968,1316
1749980097.967801,1791
1749980097.9679334,2184
1749980097.968076,2342
1749980097.9682124,2246
1749980097.9687586,1971
1749980097.9688423,1620
1749980097.96891,1300
1749980097.968983,1063
1749980097.9690583,1010
1749980097.9691277,1248
1749980097.9691882,1708
1749980097.9692554,2128
1749980097.9693294,2322
1749980097.969404,2261
1749980097.9694788,2006
1749980097.969554,1661
1749980097.969628,1336
1749980097.9697027,1087
1749980097.9697766,994
1749980097.969851,1183
1749980097.9699252,1620
1749980097.9699917,2070
1749980097.9700577,2311
1749980097.9701319,2294
1749980097.9702058,2061
1749980097.9702797,1723
1749980097.9703548,1391
1749980097.9704292,1131
1749980097.970503,1000
1749980097.9705863,1134
1749980097.9706607,1539
1749980097.9707346,2012
1749980097.9708083,2302
1749980097.9708817,2334
1749980097.9709556,2131
1749980097.9710293,1801
1749980097.9711027,1457
1749980097.9711766,1183
1749980097.9712505,1022
1749980097.9713242,1109
1749980097.9713976,1477
1749980097.971472,1956
1749980097.9715464,2279
1749980097.9716213,2348
1749980097.971714,2174
1749980097.971851,1860
1749980097.9723485,1513
1749980097.9895632,1225
1749980097.9896727,1034
1749980097.9906127,1068
1749980097.9906905,1391
1749980097.9907606,1869
1749980097.9908297,2230
1749980097.9911106,2345
1749980097.9911823,2210
1749980097.9912446,1916
1749980097.994011,1569
1749980097.9940858,1269
1749980097.9941866,1054
1749980097.9942613,1041
1749980097.9943347,1320
1749980097.9944077,1794
1749980097.9944801,2191
1749980097.994553,2348
1749980097.995011,2246
1749980097.9951246,1964
1749980097.9951992,1612
1749980097.9952724,1301
1749980097.9953456,1072
1749980097.995418,1018
1749980097.995514,1250
1749980097.9955873,1708
1749980097.9956598,2135
1749980097.9957325,2337
1749980097.995805,2277
1749980097.9958785,2015
1749980097.9959655,1663
1749980097.9960384,1336
1749980097.9961116,1088
1749980097.9961896,993
1749980097.9967782,1177
1749980097.996864,1611
1749980097.9969368,2062
1749980097.9970083,2308
1749980097.9971008,2294
1749980097.9974484,2061
1749980097.9975276,1720
1749980097.9976022,1382
1749980098.0066042,1116
1749980098.039107,985
1749980098.065945,1121
1749980098.0661328,1526
1749980098.066217,1997
1749980098.0662906,2286
1749980098.0664349,2319
1749980098.066543,2119
1749980098.0666468,1788
1749980098.0667508,1438
1749980098.0668535,1157
1749980098.0669723,995
1749980098.067075,1087
1749980098.0671782,1459
1749980098.0672803,1939
1749980098.1398427,2265
1749980098.1420407,2343
1749980098.142115,2180
1749980098.1421866,1870
1749980098.142258,1517
1749980098.1423295,1219
1749980098.1424005,1024
1749980098.1424713,1062
1749980098.142543,1389
1749980098.142615,1868
1749980098.1426854,2230
1749980098.1427567,2348
1749980098.1428268,2218
1749980098.142897,1924
1749980098.1429672,1570
1749980098.1430378,1262
1749980098.143108,1045
1749980098.1431785,1038
1749980098.1432486,1327
1749980098.1433191,1809
1749980098.1433895,2208
1749980098.1434598,2365
1749980098.1435306,2265
1749980098.1436057,1989
1749980098.1436758,1642
1749980098.1437461,1328
1749980098.1438162,1089
1749980098.1438868,1025
1749980098.1439564,1254
1749980098.1440265,1717
1749980098.144096,2153
1749980098.1441667,2358
1749980098.1729376,2299
1749980098.1897426,2042
1749980098.1903756,1697
1749980098.1904807,1373
1749980098.1905675,1119
1749980098.2018907,1014
1749980098.21361,1191
1749980098.2211726,1629
1749980098.2212534,2091
1749980098.2213302,2342
1749980098.2214017,2328
1749980098.2214754,2094
1749980098.2215476,1754
1749980098.2216167,1420
1749980098.2217011,1156
1749980098.221771,1018
1749980098.221839,1144
1749980098.2219048,1542
1749980098.2321558,2012
1749980098.2414103,2302
1749980098.2444556,2334
1749980098.2446024,2130
1749980098.2447252,1802
1749980098.2519474,1458
1749980098.2520397,1181
1749980098.2521214,1015
1749980098.2595234,1096
1749980098.284643,1461
1749980098.2962115,1943
1749980098.2966013,2272
1749980098.296677,2346
1749980098.316191,2175
1749980098.3488111,1863
1749980098.3488896,1516
1749980098.3622887,1227
1749980098.3702877,1030
1749980098.3733156,1055
1749980098.3734035,1373
1749980098.373486,1854
1749980098.3735633,2222
1749980098.3738978,2341
1749980098.3739624,2202
1749980098.3740368,1900
1749980098.374113,1545
1749980098.3747172,1243
1749980098.374797,1029
1749980098.3748817,1009
1749980098.3749685,1269
1749980098.3750708,1722
1749980098.3751543,2113
1749980098.3752315,2283
1749980098.3753211,2203
1749980098.3754058,1933
1749980098.3754969,1575
1749980098.375584,1251
1749980098.3756695,1019
1749980098.3757596,977
1749980098.3758368,1224
1749980098.3759184,1688
1749980098.3760073,2114
1749980098.3760936,2314
1749980098.3761826,2260
1749980098.3762639,2005
1749980098.376345,1657
1749980098.3764334,1327
1749980098.3765182,1073
1749980098.3765993,972
1749980098.3766768,1151
1749980098.3767588,1586
1749980098.3768475,2045
1749980098.376932,2299
1749980098.377015,2293
1749980098.377083,2065
1749980098.3771682,1727
1749980098.3772495,1390
1749980098.3773298,1124
1749980098.3774068,984
1749980098.3774838,1108
1749980098.377568,1506
1749980098.377649,1979
1749980098.3777382,2275
1749980098.3778217,2313
1749980098.3779027,2114
1749980098.3779745,1786
1749980098.37806,1440
1749980098.378146,1159
1749980098.3782296,990
1749980098.3783185,1070
1749980098.379217,1437
1749980098.3793187,1923
1749980098.3794057,2259
1749980098.3794868,2340
1749980098.3795767,2174
1749980098.3796542,1860
1749980098.379731,1505
1749980098.388822,1207
1749980098.391391,1007
1749980098.3915746,1034
1749980098.3919241,1353
1749980098.3920171,1835
1749980098.3920932,2204
1749980098.3921626,2328
1749980098.392233,2200
1749980098.392303,1906
1749980098.3923743,1553
1749980098.3924587,1250
1749980098.392529,1038
1749980098.392601,1023
1749980098.392679,1289
1749980098.3927526,1744
1749980098.3928206,2134
1749980098.3974407,2306
1749980098.3975163,2231
1749980098.3975852,1964
1749980098.397653,1605
1749980098.3977225,1275
1749980098.3977928,1037
1749980098.3978617,991
1749980098.3979232,1235
1749980098.3979897,1697
1749980098.39806,2125
1749980098.3981278,2330
1749980098.3981972,2280
1749980098.398267,2024
1749980098.3983347,1668
1749980098.3984265,1330
1749980098.3985012,1075
1749980098.398571,979
1749980098.398639,1162
1749980098.3987095,1595
1749980098.3987827,2050
1749980098.3988526,2304
1749980098.398922,2303
1749980098.3989933,2081
1749980098.3990612,1743
1749980098.3991284,1399
1749980098.399206,1124
1749980098.399284,981
1749980098.399352,1108
1749980098.3994212,1511
1749980098.399493,1989
1749980098.3995643,2285
1749980098.3996348,2323
1749980098.3997068,2125
1749980098.399778,1799
1749980098.399849,1450
1749980098.39992,1161
1749980098.399991,980
1749980098.4000616,1049
1749980098.400133,1411
1749980098.4002037,1900
1749980098.4002743,2243
1749980098.4003453,2329
1749980098.4004169,2163
1749980098.4004877,1849
1749980098.400559,1497
1749980098.4006298,1203
1749980098.4007003,1002
1749980098.4007714,1023
1749980098.4008417,1337
1749980098.4009125,1820
1749980098.400984,2196
1749980098.401056,2324
1749980098.4011288,2194
1749980098.401205,1897
1749980098.4012764,1542
1749980098.4013464,1234
1749980098.4014173,1013
1749980098.401488,994
1749980098.4015594,1275
1749980098.4016304,1762
1749980098.4017136,2177
1749980098.401785,2345
1749980098.419615,2247
1749980098.4386408,1965
1749980098.4387302,1614
1749980098.4388134,1304
1749980098.4389226,1071
1749980098.4390066,998
1749980098.4390872,1200
1749980098.4391696,1630
1749980098.4392521,2051
1749980098.4393566,2271
1749980098.4394395,2241
1749980098.4395223,1998
1749980098.4396052,1644
1749980098.4396882,1302
1749980098.4397886,1046
1749980098.4398766,952
1749980098.4399607,1135
1749980098.4400432,1557
1749980098.4401257,1998
1749980098.4402235,2245
1749980098.449593,2248
1749980098.450724,2030
1749980098.4515262,1687
1749980098.4519544,1335
1749980098.4520295,1064
1749980098.4521039,942
1749980098.452177,1092
1749980098.4522605,1503
1749980098.4676552,1973
1749980098.5370631,2258
1749980098.5712132,2292
1749980098.6620479,2098
1749980098.6993454,1776
1749980098.6996999,1429
1749980098.7000585,1144
1749980098.700396,971
1749980098.7055898,1047
1749980098.7060404,1409
1749980098.7063785,1895
1749980098.706709,2235
1749980098.7422752,2323
1749980098.7548594,2162
1749980098.7555304,1850
1749980098.7556596,1491
1749980098.7558522,1187
1749980098.7564027,985
1749980098.756505,1012
1749980098.7648852,1334
1749980098.764971,1821
1749980098.7650516,2196
1749980098.7651172,2324
1749980098.765184,2196
1749980098.7652524,1899
1749980098.7653213,1541
1749980098.7709851,1230
1749980098.771073,1009
1749980098.771148,987
1749980098.771219,1250
1749980098.7712889,1710
1749980098.7713585,2108
1749980098.7714262,2283
1749980098.7714937,2207
1749980098.771563,1941
1749980098.7716303,1585
1749980098.771719,1255
1749980098.7717874,1012
1749980098.771858,954
1749980098.771929,1194
1749980098.7719991,1664
1749980098.7720678,2103
1749980098.772148,2310
1749980098.7722242,2255
1749980098.7723,2002
1749980098.7723756,1662
1749980098.7724502,1338
1749980098.7725246,1081
1749980098.7725992,970
1749980098.7726734,1148
1749980098.772751,1598
1749980098.7728312,2079
1749980098.7729058,2341
1749980098.77298,2326
1749980098.773054,2087
1749980098.7731168,1749
1749980098.7731817,1419
1749980098.7732563,1153
1749980098.77333,999
1749980098.773404,1105
1749980098.773478,1496
1749980098.7735522,1979
1749980098.773628,2288
1749980098.773703,2335
1749980098.7737777,2141
1749980098.7738514,1817
1749980098.7739267,1472
1749980098.7739904,1189
1749980098.774059,1013
1749980098.7741332,1082
1749980098.7742076,1442
1749980098.7742813,1927
1749980098.7743552,2266
1749980098.77443,2349
1749980098.7745044,2184
1749980098.7745786,1873
1749980098.7746537,1524
1749980098.7750046,1232
1749980098.7892823,1034
1749980098.7893686,1060
1749980098.7894478,1378
1749980098.7895262,1863
1749980098.7896047,2238
1749980098.7896793,2366
1749980098.7898145,2238
1749980098.7898927,1942
1749980098.7899668,1589
1749980098.7900267,1281
1749980098.7901042,1060
1749980098.7901816,1036
1749980098.790259,1306
1749980098.7903366,1780
1749980098.790414,2188
1749980098.7905395,2356
1749980098.7906146,2263
1749980098.7906923,1985
1749980098.7907703,1637
1749980098.7908478,1328
1749980098.7909253,1096
1749980098.791003,1025
1749980098.7910802,1230
1749980098.7911575,1667
1749980098.7912347,2096
1749980098.791312,2318
1749980098.7913892,2283
1749980098.7914667,2033
1749980098.791544,1675
1749980098.7916214,1329
1749980098.791724,1067
1749980098.7918034,964
1749980098.7918813,1142
1749980098.7919588,1572
1749980098.7920358,2030
1749980098.7921128,2287
1749980098.7921903,2289
1749980098.7922678,2069
1749980098.792345,1730
1749980098.792422,1386
1749980098.7925014,1117
1749980098.7925756,977
1749980098.7926526,1096
1749980098.7927296,1482
1749980098.8448203,1945
1749980098.8608499,2241
1749980098.8903823,2291
1749980098.902928,2106
1749980098.9030118,1783
1749980098.9030857,1431
1749980098.921674,1147
1749980098.9218094,982
1749980098.9219146,1062
1749980098.9220467,1422
1749980098.9221535,1901
1749980098.922273,2238
1749980098.922378,2328
1749980098.9258718,2170
1749980098.9259853,1856
1749980098.9260483,1497
1749980098.9261193,1198
1749980098.9261954,1003
1749980098.926607,1030
1749980098.9267201,1344
1749980098.926826,1822
1749980098.926931,2198
1749980098.9271932,2333
1749980098.9419174,2215
1749980098.965559,1923
1749980098.9730952,1567
1749980098.9732254,1258
1749980098.9733293,1038
1749980098.9734275,1015
1749980098.9735246,1282
1749980098.9736397,1751
1749980098.9737372,2156
1749980098.9738338,2329
1749980098.9739304,2248
1749980098.9740162,1983
1749980098.9741309,1633
1749980098.9742293,1307
1749980098.9743261,1055
1749980098.9744227,982
1749980098.9745355,1215
1749980098.9746325,1695
1749980098.9747293,2152
1749980098.974826,2366
1749980098.9749374,2306
1749980098.9750483,2047
1749980098.9751496,1709
1749980098.9753816,1393
1749980098.975457,1138
1749980098.975532,1012
1749980098.9756072,1159
1749980098.9756827,1581
1749980098.9757583,2050
1749980098.9758313,2320
1749980098.9759088,2320
1749980098.9759836,2092
1749980098.9760575,1753
1749980098.9761326,1416
1749980098.976207,1145
1749980098.9762802,993
1749980098.9763553,1104
1749980098.9764323,1500
1749980098.9765084,1987
1749980098.9765844,2295
1749980098.9766595,2338
1749980098.9767332,2140
1749980098.976812,1815
1749980098.9768906,1471
1749980098.9769676,1188
1749980098.9770484,1009
1749980098.9771233,1073
1749980098.977186,1432
1749980098.9772632,1927
1749980098.9773355,2276
1749980098.9774096,2364
1749980098.9774842,2197
1749980098.977559,1880
1749980098.977636,1526
1749980098.9778142,1230
1749980098.9778953,1029
1749980098.9779696,1044
1749980098.9780326,1345
1749980098.9780993,1815
1749980098.9796836,2186
1749980098.9797678,2321
1749980098.9798439,2205
1749980098.9799922,1915
1749980098.9800663,1555
1749980098.9801383,1235
1749980098.9802113,1006
1749980098.9802828,982
1749980098.9803553,1253
1749980098.9804275,1727
1749980098.9805002,2138
1749980098.980572,2315
1749980098.980649,2236
1749980098.980723,1968
1749980098.9807951,1614
1749980098.9808667,1287
1749980098.9809384,1042
1749980098.9810104,976
1749980098.9810789,1205
1749980098.981139,1671
1749980098.9812098,2116
1749980098.9813151,2329
1749980098.9821858,2278
1749980098.9822576,2022
1749980098.9845774,1678
1749980098.9858332,1353
1749980098.9859083,1100
1749980098.985974,983
1749980098.9860365,1135
1749980098.9861076,1546
1749980098.9861786,2000
1749980098.9862497,2265
1749980098.9863212,2279
1749980098.9863923,2067
1749980098.988003,1732
1749980099.033838,1384
1749980099.0521333,1104
1749980099.078783,956
1749980099.094588,1080
1749980099.0946832,1487
1749980099.0947666,1976
1749980099.094849,2281
1749980099.1004593,2319
1749980099.1006143,2117
1749980099.100696,1787
1749980099.1007757,1439
1749980099.100855,1155
1749980099.1009338,975
1749980099.1010122,1035
1749980099.1010873,1387
1749980099.1011498,1875
1749980099.101227,2222
1749980099.1013052,2313
1749980099.1013837,2152
1749980099.1014776,1843
1749980099.1015565,1493
1749980099.101635,1195
1749980099.1222734,987
1749980099.1224127,1000
1749980099.1225233,1314
1749980099.1226285,1809
1749980099.122732,2198
1749980099.1228454,2332
1749980099.1229482,2204
1749980099.123051,1907
1749980099.123154,1555
1749980099.1232567,1247
1749980099.1236587,1018
1749980099.1237648,982
1749980099.1238678,1245
1749980099.1240249,1727
1749980099.12413,2149
1749980099.1242335,2329
1749980099.1243362,2242
1749980099.1244388,1968
1749980099.1245413,1619
1749980099.1246583,1300
1749980099.1247754,1052
1749980099.1248775,970
1749980099.12498,1185
1749980099.1268108,1649
1749980099.1269171,2103
1749980099.1270218,2323
1749980099.1271253,2273
1749980099.1272283,2018
1749980099.1273308,1678
1749980099.1274345,1351
1749980099.1275373,1086
1749980099.1276388,959
1749980099.127742,1127
1749980099.127844,1582
1749980099.1447823,2080
1749980099.1533313,2353
1749980099.153513,2336
1749980099.153628,2093
1749980099.1537423,1759
1749980099.1538737,1437
1749980099.1539826,1171
1749980099.1651914,1001
1749980099.1658118,1080
1749980099.1658883,1453
1749980099.16882,1937
1749980099.1751537,2256
1749980099.1968057,2307
1749980099.1971948,2110
1749980099.1975942,1782
1749980099.1995895,1439
1749980099.2193515,1160
1749980099.2668767,984
1749980099.2719033,1049
1749980099.3053036,1410
1749980099.3363643,1909
1749980099.357872,2260
1749980099.3579547,2344
1749980099.358111,2172
1749980099.3582869,1855
1749980099.3755717,1506
1749980099.3902633,1214
1749980099.3904002,1010
1749980099.3974383,1019
1749980099.4009433,1323
1749980099.430346,1807
1749980099.4504821,2191
1749980099.4823267,2324
1749980099.4824185,2198
1749980099.4825034,1905
1749980099.4825904,1555
1749980099.4826584,1249
1749980099.4827263,1022
1749980099.4828014,991
1749980099.482881,1262
1749980099.48296,1749
1749980099.4830403,2174
1749980099.48312,2349
1749980099.4832006,2257
1749980099.4832802,1984
1749980099.4833596,1643
1749980099.4834387,1331
1749980099.4835188,1082
1749980099.483598,992
1749980099.4836788,1202
1749980099.483759,1670
1749980099.4838266,2129
1749980099.483907,2347
1749980099.4839876,2290
1749980099.4840665,2034
1749980099.4841466,1701
1749980099.4842272,1380
1749980099.4843073,1106
1749980099.4843876,968
1749980099.4969587,1140
1749980099.4984932,1617
1749980099.5001104,2133
1749980099.5007384,2398
1749980099.5008466,2358
1749980099.500949,2109
1749980099.5010505,1797
1749980099.501154,1495
1749980099.5012562,1211
1749980099.501358,1004
1749980099.50146,1084
1749980099.501561,1517
1749980099.5016625,2071
1749980099.5348294,2401
1749980099.535815,2404
1749980099.5361495,2168
1749980099.5362465,1866
1749980099.5365915,1576
1749980099.5377843,1294
1749980099.5379615,1044
1749980099.5380464,1047
1749980099.5381384,1435
1749980099.53823,2019
1749980099.5383406,2413
1749980099.5385869,2452
1749980099.5386813,2215
1749980099.5388095,1906
1749980099.5389025,1626
1749980099.5389946,1367
1749980099.5390844,1104
1749980099.5392015,1030
1749980099.539319,1331
1749980099.5396585,1898
1749980099.5397527,2351
1749980099.5398438,2463
1749980099.5399618,2266
1749980099.5405295,1947
1749980099.540622,1648
1749980099.5407135,1397
1749980099.5408041,1154
1749980099.5408921,1041
1749980099.5409973,1243
1749980099.5410817,1722
1749980099.5411599,2170
1749980099.5414295,2349
1749980099.5415726,2233
1749980099.5417252,1941
1749980099.586769,1613
1749980099.6154249,1331
1749980099.6155632,1098
1749980099.6156378,1002
1749980099.6157105,1201
1749980099.6157837,1667
1749980099.615856,2128
1749980099.6159286,2337
1749980099.6160018,2261
1749980099.616074,1993
1749980099.6556034,1667
1749980099.6778774,1374
1749980099.6806126,1131
1749980099.6895516,997
1749980099.6898198,1135
1749980099.6902936,1562
1749980099.6908553,2046
1749980099.692796,2315
1749980099.6929858,2297
1749980099.6931443,2054
1749980099.696892,1726
1749980099.6970057,1415
1749980099.6971095,1159
1749980099.6972108,993
1749980099.6973853,1077
1749980099.6978104,1461
1749980099.6982467,1956
1749980099.698674,2270
1749980099.6992364,2304
1749980099.6996574,2093
1749980099.7000768,1773
1749980099.700458,1451
1749980099.7005627,1184
1749980099.7006648,996
1749980099.7007658,1039
1749980099.700878,1387
1749980099.7009792,1889
1749980099.7011025,2243
1749980099.7274845,2322
1749980099.7276602,2145
1749980099.7277722,1838
1749980099.7286668,1508
1749980099.7313783,1227
1749980099.7314613,1012
1749980099.7315354,1003
1749980099.7316089,1306
1749980099.731682,1809
1749980099.7317722,2208
1749980099.7318475,2336
1749980099.7319224,2196
1749980099.7319956,1901
1749980099.7320685,1566
1749980099.7321427,1271
1749980099.7322164,1035
1749980099.7322931,978
1749980099.732367,1230
1749980099.7324414,1718
1749980099.7325153,2153
1749980099.7325876,2331
1749980099.7326615,2234
1749980099.7327352,1961
1749980099.7328093,1632
1749980099.732883,1335
1749980099.7329571,1092
1749980099.733032,992
1749980099.7330964,1187
1749980099.7331574,1647
1749980099.7332306,2108
1749980099.7332976,2333
1749980099.733369,2279
1749980099.7334423,2023
1749980099.7335157,1689
1749980099.7335894,1374
1749980099.733663,1115
1749980099.7337348,980
1749980099.733802,1127
1749980099.7338693,1561
1749980099.7339423,2043
1749980099.7340078,2308
1749980099.73407,2293
1749980099.7341366,2059
1749980099.7342052,1736
1749980099.7342784,1419
1749980099.7343473,1152
1749980099.7344146,982
1749980099.7344847,1073
1749980099.734554,1467
1749980099.7346246,1970
1749980099.7346957,2289
1749980099.7347655,2329
1749980099.7348351,2125
1749980099.7349067,1808
1749980099.7349777,1480
1749980099.7350566,1201
1749980099.7351253,1003
1749980099.7351902,1044
1749980099.7352517,1396
1749980099.735317,1900
1749980099.7353861,2251
1749980099.7354558,2326
1749980099.7355256,2151
1749980099.7355962,1854
1749980099.7356665,1536
1749980099.7357373,1259
1749980099.7358077,1043
1749980099.7358768,1037
1749980099.735947,1351
1749980099.7360172,1870
1749980099.7360873,2281
1749980099.7361572,2410
1749980099.736232,2261
1749980099.7363021,1955
1749980099.7363737,1610
1749980099.7364454,1305
1749980099.7365167,1058
1749980099.7365892,990
1749980099.7366607,1237
1749980099.7367315,1726
1749980099.7368007,2164
1749980099.7368712,2344
1749980099.736941,2248
1749980099.7370126,1975
1749980099.7370875,1642
1749980099.7371569,1337
1749980099.7372286,1085
1749980099.7372992,982
1749980099.7373698,1179
1749980099.7374415,1645
1749980099.7375112,2112
1749980099.737582,2340
1749980099.737652,2287
1749980099.737722,2033
1749980099.7377913,1701
1749980099.7378592,1387
1749980099.7379198,1124
1749980099.7379832,984
1749980099.738053,1126
1749980099.7381234,1557
1749980099.7382019,2045
1749980099.7382743,2320
1749980099.7383475,2313
1749980099.7884967,2080
1749980099.8311589,1750
1749980099.835907,1425
1749980099.8359854,1157
1749980099.8360586,989
1749980099.836131,1077
1749980099.8362045,1462
1749980099.8362765,1957
1749980099.8363488,2277
1749980099.83757,2322
1749980099.8420122,2121
1749980099.8420975,1797
1749980099.8421783,1458
1749980099.842259,1176
1749980099.8423395,983
1749980099.842423,1025
1749980099.8424892,1371
1749980099.8425572,1871
1749980099.8426347,2232
1749980099.84271,2324
1749980099.8427856,2157
1749980099.842861,1847
1749980099.8429368,1508
1749980099.8430126,1220
1749980099.8430877,1008
1749980099.8431633,1007
1749980099.8432388,1315
1749980099.8433092,1821
1749980099.8433874,2225
1749980099.8434653,2360
1749980099.843543,2223
1749980099.8436208,1927
1749980099.8436985,1588
1749980099.8437767,1289
1749980099.8438547,1049
1749980099.8439326,985
1749980099.8440104,1234
1749980099.8440883,1727
1749980099.8441658,2176
1749980099.8442438,2366
1749980099.8443294,2270
1749980099.844408,1988
1749980099.8444855,1646
1749980099.8445635,1337
1749980099.8446412,1087
1749980099.8447192,986
1749980099.8447967,1183
1749980099.8448749,1650
1749980099.8449526,2123
1749980099.8450441,2355
1749980099.8451312,2302
1749980099.8452003,2042
1749980099.8452866,1706
1749980099.845373,1391
1749980099.845458,1128
1749980099.8455448,982
1749980099.8456304,1116
1749980099.8457162,1548
1749980099.845801,2045
1749980099.8458867,2332
1749980099.845965,2330
1749980099.8460436,2096
1749980099.84613,1766
1749980099.846212,1442
1749980099.8463016,1172
1749980099.8463821,997
1749980099.8464608,1081
1749980099.8465421,1471
1749980099.8466232,1972
1749980099.8467038,2292
1749980099.846785,2328
1749980099.8468666,2120
1749980099.8469477,1802
1749980099.8470283,1475
1749980099.8471096,1197
1749980099.8471904,995
1749980099.8472707,1029
1749980099.8473523,1380
1749980099.847434,1891
1749980099.8475153,2255
1749980099.8475964,2338
1749980099.8476768,2165
1749980099.847758,1864
1749980099.8478384,1541
1749980099.8479187,1257
1749980099.848,1032
1749980099.8558757,1017
1749980099.9024715,1328
1749980099.91168,1850
1749980099.9122171,2264
1749980099.9133458,2390
1749980099.9137914,2241
1749980099.9141319,1945
1749980099.9144652,1617
1749980099.9147978,1323
1749980099.915263,1075
1749980099.915594,997
1749980099.9159245,1241
1749980099.9162526,1741
1749980099.9165804,2194
1749980099.916911,2376
1749980099.91724,2272
1749980099.9175715,1992
1749980099.9179018,1663
1749980099.918926,1364
1749980099.963823,1109
1749980099.965229,994
1749980099.9653115,1182
1749980099.9653852,1650
1749980099.965459,2125
1749980099.9677694,2356
1749980099.9678478,2300
1749980099.9679217,2041
1749980099.9679952,1712
1749980099.9680681,1406
1749980099.9681404,1149
1749980099.968223,1004
1749980099.9787478,1136
1749980099.978836,1557
1749980099.97891,2041
1749980099.9789832,2317
1749980099.9790576,2314
1749980099.9791305,2085
1749980099.980971,1760
1749980099.981048,1439
1749980099.9811158,1171
1749980099.981177,1000
1749980099.98125,1088
1749980099.981323,1476
1749980099.9813957,1975
1749980099.9814684,2296
1749980099.9815412,2337
1749980099.981614,2133
1749980099.9825664,1814
1749980099.9826643,1484
1749980099.982739,1207
1749980099.9828117,1012
1749980099.982884,1054
1749980099.982957,1407
1749980099.9830294,1917
1749980099.9831014,2276
1749980099.9831738,2354
1749980099.9832478,2177
1749980099.9833198,1872
1749980099.9833922,1541
1749980099.9834645,1245
1749980099.983537,1009
1749980099.9836094,993
1749980099.9836817,1319
1749980099.9837542,1864
1749980099.983827,2293
1749980099.9838998,2418
1749980099.9839823,2259
1749980099.984103,1958
1749980099.9841754,1638
1749980099.9842482,1354
1749980099.98432,1101
1749980099.9843931,1001
1749980099.9844654,1216
1749980099.9845376,1698
1749980099.9846098,2153
1749980099.9846818,2352
1749980099.9847534,2262
1749980099.984826,1987
1749980099.984899,1657
1749980099.9849868,1356
1749980099.9851139,1101
1749980099.9851751,990
1749980099.9852471,1195
1749980099.98532,1689
1749980099.985393,2180
1749980099.985465,2399
1749980099.9855378,2316
1749980099.9856098,2047
1749980099.9856825,1734
1749980099.9857552,1441
1749980099.9858274,1166
1749980099.9859118,993
1749980099.985978,1143
1749980099.9860418,1648
1749980099.9861143,2219
1749980099.9861867,2509
1749980099.9862587,2446
1749980099.9863312,2164
1749980099.986403,1856
1749980099.9864757,1589
1749980099.9865487,1325
1749980099.9866207,1082
1749980099.986692,1088
1749980099.986764,1462
1749980099.9868362,2007
1749980099.986909,2363
1749980099.986981,2389
1749980099.9870532,2155
1749980099.9919538,1844
1749980099.998351,1553
1749980099.9993994,1289
1749980099.9994807,1055
1749980099.9995549,1048
1749980099.9996285,1401
1749980099.9997072,1955
1749980099.9997804,2346
1749980099.9998538,2402
1749980099.9999268,2183
1749980099.9999988,1871
1749980100.0000718,1578
1749980100.0001447,1314
1749980100.0002174,1067
1749980100.0002897,1018
1749980100.0003624,1343
1749980100.000779,1925
1749980100.005162,2377
1749980100.0052385,2475
1749980100.0053127,2270
1749980100.005387,1967
1749980100.0054607,1692
1749980100.0055351,1440
1749980100.0056136,1162
1749980100.0056868,1019
1749980100.00576,1244
1749980100.0058331,1796
1749980100.005906,2305
1749980100.0059733,2477
1749980100.0060334,2316
1749980100.0061069,2012
1749980100.0062025,1726
1749980100.0062768,1478
1749980100.0063503,1211
1749980100.0064244,1025
1749980100.0064974,1163
1749980100.006571,1650
1749980100.0068357,2174
1749980100.0069082,2412
1749980100.0069814,2317
1749980100.0070562,2031
1749980100.0071368,1728
1749980100.0072105,1464
1749980100.0072834,1205
1749980100.0073562,1015
1749980100.007429,1124
1749980100.007502,1589
1749980100.0075877,2138
1749980100.0076573,2420
1749980100.0078135,2356
1749980100.0078878,2076
1749980100.007961,1769
1749980100.0080347,1505
1749980100.0081089,1249
1749980100.0081933,1026
1749980100.0082672,1068
1749980100.008339,1484
1749980100.008443,2056
1749980100.0085216,2402
1749980100.008595,2392
1749980100.0086684,2130
1749980100.0087433,1823
1749980100.0088181,1559
1749980100.0088902,1308
1749980100.0089633,1057
1749980100.009036,1017
1749980100.009103,1353
1749980100.0091636,1913
1749980100.0092313,2315
1749980100.0093014,2375
1749980100.0093753,2155
1749980100.0094483,1848
1749980100.009521,1562
1749980100.009588,1298
1749980100.0096543,1042
1749980100.0097227,982
1749980100.0097897,1302
1749980100.009856,1882
1749980100.0099227,2334
1749980100.0099893,2433
1749980100.0100567,2229
1749980100.0101233,1923
1749980100.0101895,1640
1749980100.0102563,1389
1749980100.0103219,1124
1749980100.0103877,988
1749980100.0104537,1191
1749980100.010525,1699
1749980100.010596,2178
1749980100.010668,2361
1749980100.0107405,2233
1749980100.0108147,1939
1749980100.0108874,1626
1749980100.0109596,1355
1749980100.011033,1106
1749980100.0111055,967
1749980100.0111785,1127
1749980100.031237,1586
1749980100.0380437,2067
1749980100.0381286,2294
1749980100.0382025,2223
1749980100.0382755,1956
1749980100.0383492,1639
1749980100.0384345,1350
1749980100.038507,1097
1749980100.03858,949
1749980100.038653,1099
1749980100.038725,1573
1749980100.0387974,2108
1749980100.0388691,2384
1749980100.0389419,2332
1749980100.0390232,2060
1749980100.039095,1743
1749980100.0391672,1460
1749980100.0392392,1200
1749980100.0393112,988
1749980100.0393834,1030
1749980100.0394552,1426
1749980100.039528,1976
1749980100.0396,2326
1749980100.0396721,2343
1749980100.039744,2102
1749980100.0398169,1784
1749980100.0398886,1486
1749980100.0399606,1216
1749980100.0400321,979
1749980100.0401042,974
1749980100.0401769,1338
1749980100.040249,1910
1749980100.040322,2318
1749980100.0403945,2383
1749980100.0404665,2165
1749980100.0405388,1852
1749980100.0555089,1559
1749980100.1223483,1302
1749980100.1224272,1053
1749980100.1224978,973
1749980100.123203,1232
1749980100.1232793,1748
1749980100.1248813,2184
1749980100.1253023,2322
1749980100.1261911,2165
1749980100.1269007,1859
1749980100.1281972,1539
1749980100.1901062,1268
1749980100.202541,1038
1749980100.2026248,956
1749980100.2026923,1179
1749980100.2030456,1658
1749980100.2054155,2103
1749980100.2055328,2290
1749980100.2056699,2192
1749980100.2057745,1908
1749980100.205879,1571
1749980100.2060823,1276
1749980100.206197,1045
1749980100.206301,951
1749980100.2064042,1137
1749980100.206507,1581
1749980100.20661,2035
1749980100.2067122,2265
1749980100.2068152,2223
1749980100.2069192,1971
1749980100.2070222,1632
1749980100.2071307,1310
1749980100.2072344,1055
1749980100.2555244,926
1749980100.2569482,1069
1749980100.2570322,1485
1749980100.257103,1955
1749980100.2571764,2225
1749980100.257259,2229
1749980100.2573326,2009
1749980100.257406,1682
1749980100.2574792,1346
1749980100.257553,1067
1749980100.2576265,903
1749980100.257699,1016
1749980100.2577722,1437
1749980100.2578452,1962
1749980100.2579176,2289
1749980100.25798,2323
1749980100.2580478,2115
1749980100.2581205,1805
1749980100.2581928,1488
1749980100.2582655,1204
1749980100.2583392,979
1749980100.2584295,992
1749980100.258504,1349
1749980100.2585769,1893
1749980100.2586508,2286
1749980100.2587242,2369
1749980100.2587986,2180
1749980100.2588735,1877
1749980100.258955,1564
1749980100.2590275,1272
1749980100.2590995,1012
1749980100.2591717,968
1749980100.2592478,1306
1749980100.2593203,1901
1749980100.2593925,2372
1749980100.2603445,2491
1749980100.2604194,2299
1749980100.260516,1988
1749980100.2975647,1693
1749980100.297724,1427
1749980100.3123465,1150
1749980100.3124297,1007
1749980100.3125098,1219
1749980100.3201828,1751
1749980100.3224492,2257
1749980100.3225348,2451
1749980100.3226151,2317
1749980100.322693,2017
1749980100.3613172,1710
1749980100.3708217,1442
1749980100.3709111,1177
1749980100.3709934,1010
1749980100.3716338,1159
1749980100.371734,1637
1749980100.3718147,2148
1749980100.3718953,2385
1749980100.371975,2302
1749980100.3720527,2027
1749980100.3721309,1722
1749980100.3722086,1442
1749980100.3722868,1169
1749980100.3723643,987
1749980100.3724418,1136
1749980100.3725193,1657
1749980100.3725965,2245
1749980100.3726742,2526
1749980100.372752,2434
1749980100.3728292,2137
1749980100.3729064,1847
1749980100.372987,1603
1749980100.3730652,1330
1749980100.3731253,1060
1749980100.3731916,1073
1749980100.3732767,1516
1749980100.3733537,2141
1749980100.373431,2513
1749980100.3735077,2484
1749980100.3735852,2204
1749980100.3736637,1915
1749980100.3737414,1682
1749980100.3738184,1425
1749980100.373895,1126
1749980100.3739638,1055
1749980100.3740234,1425
1749980100.374101,2058
1749980100.374179,2496
1749980100.3742564,2523
1749980100.3743346,2248
1749980100.3744118,1932
1749980100.3744893,1688
1749980100.3745668,1459
1749980100.3746443,1177
1749980100.3747213,1046
1749980100.3747988,1306
1749980100.3748765,1878
1749980100.3749533,2354
1749980100.3750398,2470
1749980100.3751187,2261
1749980100.3752024,1940
1749980100.3752794,1657
1749980100.3753564,1418
1749980100.375434,1167
1749980100.375511,1036
1749980100.3755887,1242
1749980100.3756654,1756
1749980100.3757422,2234
1749980100.375819,2401
1749980100.375896,2253
1749980100.3759727,1951
1749980100.3760502,1654
1749980100.376127,1402
1749980100.3762043,1155
1749980100.3762808,1004
1749980100.376357,1164
1749980100.3764343,1645
1749980100.376512,2146
1749980100.3765888,2363
1749980100.3766654,2261
1749980100.376742,1977
1749980100.3768187,1678
1749980100.376895,1411
1749980100.376972,1148
1749980100.37705,965
1749980100.3771095,1108
1749980100.3771827,1625
1749980100.3772533,2213
1749980100.3773253,2493
1749980100.3773983,2398
1749980100.3774698,2098
1749980100.3775408,1808
1749980100.377612,1570
1749980100.3776834,1306
1749980100.3777544,1034
1749980100.3778257,1027
1749980100.3778985,1440
1749980100.3779793,2049
1749980100.378052,2429
1749980100.3781235,2419
1749980100.3781953,2141
1749980100.3782666,1832
1749980100.3783379,1583
1749980100.3785372,1340
1749980100.37861,1076
1749980100.3786817,1021
1749980100.379115,1367
1749980100.379204,1960
1749980100.379984,2386
1749980100.3801205,2440
1749980100.3801932,2198
1749980100.3802648,1884
1749980100.3803358,1614
1749980100.3942835,1372
1749980100.4022546,1113
1749980100.4023662,1026
1749980100.40247,1314
1749980100.4025877,1884
1749980100.402692,2344
1749980100.4028106,2448
1749980100.4029136,2237
1749980100.4030151,1917
1749980100.4030905,1630
1749980100.4031656,1385
1749980100.4153395,1129
1749980100.4791558,995
1749980100.4792516,1202
1749980100.4794862,1720
1749980100.4797142,2206
1749980100.4798942,2383
1749980100.4800885,2241
1749980100.4802544,1945
1749980100.4804199,1647
1749980100.4805837,1385
1749980100.4807487,1121
1749980100.4809153,960
1749980100.4891446,1133
1749980100.489225,1647
1749980100.4893153,2180
1749980100.4893918,2405
1749980100.4894707,2286
1749980100.4895499,1986
1749980100.4896274,1683
1749980100.4897053,1425
1749980100.4897828,1165
1749980100.48986,964
1749980100.489943,1062
1749980100.4900215,1526
1749980100.4900985,2083
1749980100.4901757,2377
1749980100.4902532,2325
1749980100.490331,2055
1749980100.4904075,1753
1749980100.4904854,1481
1749980100.4905639,1209
1749980100.490641,960
1749980100.4907184,959
1749980100.4907956,1320
1749980100.4908757,1848
1749980100.490955,2194
1749980100.4910321,2230
1749980100.4911087,2017
1749980100.4911857,1717
1749980100.4912689,1429
1749980100.4913461,1179
1749980100.4914224,980
1749980100.4914994,1005
1749980100.491578,1356
1749980100.491655,1875
1749980100.491752,2232
1749980100.491828,2286
1749980100.4919043,2085
1749980100.491981,1782
1749980100.492061,1477
1749980100.4921374,1204
1749980100.4922137,969
1749980100.4922907,936
1749980100.4923675,1254
1749980100.49245,1806
1749980100.4925294,2244
1749980100.4926078,2362
1749980100.4926841,2190
1749980100.4927611,1890
1749980100.493856,1587
1749980100.493983,1312
1749980100.494063,1047
1749980100.494141,932
1749980100.4942195,1161
1749980100.4942973,1685
1749980100.494376,2167
1749980100.4944558,2344
1749980100.4945352,2214
1749980100.4946144,1929
1749980100.4946926,1632
1749980100.494773,1357
1749980100.4948516,1078
1749980100.4949303,913
1749980100.4950087,1091
1749980100.4951053,1614
1749980100.4952142,2152
1749980100.5015564,2379
1749980100.5016396,2266
1749980100.5017357,1980
1749980100.5018091,1692
1749980100.5018837,1435
1749980100.501957,1156
1749980100.5020177,935
1749980100.502083,1042
1749980100.5021563,1553
1749980100.502228,2163
1749980100.5023007,2469
1749980100.5023735,2384
1749980100.5024462,2076
1749980100.5025196,1776
1749980100.5025954,1542
1749980100.5026686,1298
1749980100.5027416,1034
1749980100.5028155,996
1749980100.502889,1345
1749980100.5029616,1902
1749980100.5030377,2282
1749980100.5031095,2315
1749980100.5031838,2064
1749980100.5032578,1730
1749980100.503336,1438
1749980100.5034096,1203
1749980100.5034826,1003
1749980100.5035546,992
1749980100.5036273,1293
1749980100.5036988,1787
1749980100.5037723,2156
1749980100.5038435,2244
1749980100.5039165,2067
1749980100.5039895,1762
1749980100.504062,1444
1749980100.5041342,1174
1749980100.5042105,959
1749980100.5042825,944
1749980100.5043542,1253
1749980100.504426,1778
1749980100.5044982,2188
1749980100.50457,2298
1749980100.5046422,2133
1749980100.5047143,1843
1749980100.5047863,1542
1749980100.504858,1267
1749980100.5049303,1008
1749980100.505009,915
1749980100.5051904,1185
1749980100.505265,1755
1749980100.5053368,2264
1749980100.5054088,2435
1749980100.5054803,2276
1749980100.5123415,1976
1749980100.5503557,1692
1749980100.5511696,1446
1749980100.5759456,1175
1749980100.576739,980
1749980100.5774055,1114
1749980100.5802207,1610
1749980100.5811934,2153
1749980100.5820675,2401
1749980100.5821965,2303
1749980100.582342,2016
1749980100.58642,1722
1749980100.5865526,1464
1749980100.593832,1188
1749980100.6421165,963
1749980100.6492627,1047
1749980100.6493587,1523
1749980100.6494362,2107
1749980100.649513,2412
1749980100.6495955,2348
1749980100.6613338,2061
1749980100.662235,1762
1749980100.6639063,1512
1749980100.6639867,1258
1749980100.66406,1018
1749980100.6641333,1046
1749980100.6642385,1474
1749980100.664312,2071
1749980100.6643848,2428
1749980100.6644576,2407
1749980100.6645303,2133
1749980100.6646328,1835
1749980100.664705,1587
1749980100.6647773,1336
1749980100.664849,1059
1749980100.6649208,994
1749980100.6649923,1332
1749980100.7573729,1919
1749980100.7587564,2339
1749980100.758918,2389
1749980100.7589962,2151
1749980100.7590716,1848
1749980100.7591465,1590
1749980100.7592213,1352
1749980100.7592943,1088
1749980100.8034008,989
1749980100.848679,1272
1749980100.8487778,1844
1749980100.8488963,2311
1749980100.9033864,2420
1749980100.9040606,2211
1749980100.9041595,1892
1749980100.9093506,1611
1749980100.9100778,1380
1749980100.911146,1138
1749980100.9148445,1002
1749980100.9151096,1183
1749980100.9159372,1667
1749980100.9161756,2137
1749980100.916386,2327
1749980100.917205,2211
1749980100.9174376,1924
1749980100.917656,1616
1749980100.9178677,1351
1749980100.9197004,1110
1749980100.9199526,971
1749980100.9201648,1123
1749980100.9203684,1571
1749980100.9205818,2043
1749980100.920797,2263
1749980100.9211323,2190
1749980100.9213398,1930
1749980100.963231,1625
1749980100.9776304,1339
1749980100.990911,1071
1749980100.9909892,903
1749980100.991063,1056
1749980100.9911375,1563
1749980100.9912126,2133
1749980100.991287,2408
1749980100.9913616,2326
1749980100.9914355,2042
1749980100.9915085,1755
1749980100.9915826,1508
1749980100.9916575,1244
1749980100.9917448,986
1749980100.991819,994
1749980100.9918935,1413
1749980100.9919655,2018
1749980100.9920394,2393
1749980100.9921134,2387
1749980100.9921875,2118
1749980100.9924343,1814
1749980100.9925063,1560
1749980100.9925835,1310
1749980100.9926517,1035
1749980100.9927206,957
1749980100.9927897,1263
1749980100.9928632,1822
1749980100.9929361,2245
1749980100.9930093,2328
1749980100.9931335,2118
1749980100.993207,1807
1749980100.9932804,1521
1749980100.9933538,1278
1749980100.9934268,1045
1749980100.9934998,968
1749980100.9935732,1215
1749980100.9936464,1709
1749980100.9937193,2128
1749980100.9938216,2262
1749980100.993897,2113
1749980100.9941103,1818
1749980100.994188,1507
1749980100.9943702,1238
1749980100.9965923,1008
1749980101.0362887,934
1749980101.0364027,1184
1749980101.0364878,1700
1749980101.0365717,2161
1749980101.0366547,2325
1749980101.0367377,2192
1749980101.036876,1908
1749980101.036959,1609
1749980101.0370417,1336
1749980101.0371115,1068
1749980101.037192,919
1749980101.0372741,1117
1749980101.0373564,1659
1749980101.0374384,2215
1749980101.0375204,2449
1749980101.0376003,2331
1749980101.0376825,2038
1749980101.037764,1754
1749980101.037853,1509
1749980101.0379267,1236
1749980101.0379953,994
1749980101.0380657,1052
1749980101.0381424,1509
1749980101.0382245,2094
1749980101.0383067,2415
1749980101.038405,2369
1749980101.038488,2094
1749980101.03857,1796
1749980101.0386524,1541
1749980101.0387342,1280
1749980101.0388165,1030
1749980101.0388985,1036
1749980101.0389802,1434
1749980101.0390627,2013
1749980101.0391452,2377
1749980101.0392275,2381
1749980101.0393097,2125
1749980101.0393918,1820
1749980101.039474,1554
1749980101.0395558,1302
1749980101.0396378,1048
1749980101.0397203,1004
1749980101.0398052,1342
1749980101.0398877,1911
1749980101.0399697,2320
1749980101.0400517,2374
1749980101.0401342,2144
1749980101.0402162,1836
1749980101.0402982,1563
1749980101.0403807,1318
1749980101.0404634,1067
1749980101.0405455,993
1749980101.040628,1298
1749980101.04071,1884
1749980101.040792,2358
1749980101.040875,2469
1749980101.0409586,2260
1749980101.0410414,1941
1749980101.0411096,1658
1749980101.0411901,1423
1749980101.0412722,1170
1749980101.0413542,1014
1749980101.0414362,1173
1749980101.0415187,1643
1749980101.0416005,2121
1749980101.0416825,2332
1749980101.0690029,2238
1749980101.0690763,1958
1749980101.0691376,1640
1749980101.06921,1362
1749980101.069289,1119
1749980101.0693612,988
1749980101.069434,1144
1749980101.069506,1587
1749980101.0695782,2054
1749980101.0700014,2282
1749980101.0700734,2226
1749980101.070147,1974
1749980101.0702193,1662
1749980101.0702918,1366
1749980101.070364,1103
1749980101.0704362,944
1749980101.0705082,1091
1749980101.0705802,1572
1749980101.0706525,2119
1749980101.070725,2398
1749980101.0707967,2342
1749980101.0708685,2075
1749980101.0709407,1778
1749980101.0710123,1511
1749980101.0710845,1242
1749980101.0711563,1002
1749980101.0712328,1031
1749980101.0713048,1453
1749980101.0713763,2050
1749980101.071448,2419
1749980101.0715194,2416
1749980101.071591,2155
1749980101.0716631,1850
1749980101.0717509,1587
1749980101.0718236,1328
1749980101.0718954,1054
1749980101.0719666,990
1749980101.0720382,1321
1749980101.07211,1903
1749980101.0721817,2339
1749980101.0722532,2418
1749980101.0723245,2196
1749980101.0723968,1877
1749980101.072466,1589
1749980101.0725358,1338
1749980101.0726054,1085
1749980101.0726814,981
1749980101.0727522,1213
1749980101.0728226,1714
1749980101.072893,2146
1749980101.072963,2285
1749980101.0730329,2133
1749980101.073094,1837
1749980101.0731585,1524
1749980101.0732372,1243
1749980101.0733073,994
1749980101.0733776,916
1749980101.0734475,1197
1749980101.0735168,1771
1749980101.0735865,2278
1749980101.073656,2444
1749980101.0737255,2281
1749980101.073795,1970
1749980101.0738652,1674
1749980101.07394,1423
1749980101.0740144,1160
1749980101.074089,971
1749980101.074163,1093
1749980101.074237,1563
1749980101.0743117,2089
1749980101.0743866,2344
1749980101.0744612,2269
1749980101.0745358,1998
1749980101.0746105,1700
1749980101.0746849,1430
1749980101.0747595,1158
1749980101.0748339,955
1749980101.0749085,1062
1749980101.074983,1548
1749980101.119427,2131
1749980101.1195474,2435
1749980101.1196532,2375
1749980101.1197565,2094
1749980101.1198597,1795
1749980101.119963,1541
1749980101.120036,1283
1749980101.1331692,1030
1749980101.1336308,1024
1749980101.1337166,1405
1749980101.1337903,1974
1749980101.136301,2342
1749980101.136382,2356
1749980101.1364563,2108
1749980101.1365297,1803
1749980101.1366684,1533
1749980101.1367428,1280
1749980101.1368153,1032
1749980101.1368885,1000
1749980101.1369615,1351
1749980101.1370342,1931
1749980101.137097,2344
1749980101.1371574,2397
1749980101.13723,2165
1749980101.1373022,1857
1749980101.1373756,1589
1749980101.1374478,1345
1749980101.13752,1086
1749980101.1375923,992
1749980101.1376653,1274
1749980101.1377378,1849
1749980101.13781,2326
1749980101.137882,2448
1749980101.1379492,2248
1749980101.138012,1938
1749980101.1380882,1663
1749980101.1381593,1425
1749980101.1382315,1158
1749980101.138304,999
1749980101.138389,1190
1749980101.138462,1719
1749980101.1385362,2234
1749980101.1386087,2423
1749980101.1386824,2275
1749980101.1387544,1973
1749980101.1388261,1687
1749980101.1388981,1443
1749980101.13897,1181
1749980101.1390421,998
1749980101.139114,1151
1749980101.1391861,1672
1749980101.1392581,2234
1749980101.1393306,2477
1749980101.1394038,2355
1749980101.139478,2047
1749980101.1395507,1755
1749980101.1396232,1518
1749980101.139696,1263
1749980101.1397688,1030
1749980101.1398406,1081
1749980101.1399128,1520
1749980101.1399848,2091
1749980101.1400626,2408
1749980101.1401348,2361
1749980101.1402063,2077
1749980101.1402788,1768
1749980101.1403506,1511
1749980101.1404223,1266
1749980101.1404939,1033
1749980101.1405666,1037
1749980101.1406384,1414
1749980101.14071,1975
1749980101.140782,2339
1749980101.1408544,2351
1749980101.1409295,2098
1749980101.1410017,1783
1749980101.1410697,1511
1749980101.1411302,1267
1749980101.1411984,1032
1749980101.1412702,1003
1749980101.1413426,1345
1749980101.1414146,1916
1749980101.1414864,2332
1749980101.1415594,2394
1749980101.1416316,2170
1749980101.1432831,1867
1749980101.1480768,1594
1749980101.1481934,1336
1749980101.1483016,1064
1749980101.1484454,974
1749980101.148552,1287
1749980101.1486564,1900
1749980101.148761,2394
1749980101.1488655,2500
1749980101.1489708,2279
1749980101.1490755,1964
1749980101.149215,1699
1749980101.1704674,1459
1749980101.170554,1171
1749980101.170628,991
1749980101.1707013,1186
1749980101.1707735,1740
1749980101.1708465,2276
1749980101.1709194,2467
1749980101.1709917,2310
1749980101.171064,2001
1749980101.1711361,1717
1749980101.1712086,1478
1749980101.1712813,1215
1749980101.1713533,1012
1749980101.1714258,1109
1749980101.1715083,1557
1749980101.171581,2072
1749980101.171653,2327
1749980101.172032,2255
1749980101.2117882,1973
1749980101.2208734,1654
1749980101.2210536,1375
1749980101.2214558,1122
1749980101.260679,945
1749980101.2608192,1050
1749980101.2669127,1496
1749980101.266994,2033
1749980101.2670677,2319
1749980101.2671402,2273
1749980101.2672129,2005
1749980101.2672853,1696
1749980101.2673576,1416
1749980101.2674294,1151
1749980101.267502,933
1749980101.267574,997
1749980101.2676466,1456
1749980101.267718,2077
1749980101.2677903,2452
1749980101.2678792,2437
1749980101.2679577,2155
1749980101.2680357,1839
1749980101.2681136,1585
1749980101.2681909,1348
1749980101.2682686,1080
1749980101.2683475,977
1749980101.2684417,1233
1749980101.2685192,1747
1749980101.2685962,2162
1749980101.268674,2273
1749980101.2687507,2100
1749980101.2688305,1805
1749980101.2689123,1505
1749980101.2689898,1234
1749980101.269065,988
1749980101.269124,933
1749980101.2691936,1240
1749980101.26927,1800
1749980101.2693472,2248
1749980101.2694244,2359
1749980101.2695017,2172
1749980101.269579,1869
1749980101.2696557,1582
1749980101.269733,1329
1749980101.2698073,1071
1749980101.2698772,943
1749980101.2699473,1167
1749980101.2700193,1712
1749980101.270091,2226
1749980101.2701623,2415
1749980101.2702346,2269
1749980101.270307,1969
1749980101.27038,1683
1749980101.2704525,1442
1749980101.2705245,1186
1749980101.2705958,992
1749980101.2706678,1098
1749980101.2707393,1553
1749980101.270811,2071
1749980101.2708826,2325
1749980101.2709537,2250
1749980101.271025,1974
1749980101.2710962,1670
1749980101.271168,1398
1749980101.2712395,1134
1749980101.2713108,938
1749980101.271382,1048
1749980101.2714534,1530
1749980101.271525,2110
1749980101.2715962,2416
1749980101.2716677,2357
1749980101.3299196,2071
1749980101.351804,1767
1749980101.3519132,1514
1749980101.3520222,1270
1749980101.3521001,1031
1749980101.3548362,1021
1749980101.3573081,1379
1749980101.3574224,1931
1749980101.3575327,2305
1749980101.357642,2344
1749980101.3577647,2113
1749980101.357874,1799
1749980101.358069,1516
1749980101.3581903,1270
1749980101.3583052,1042
1749980101.3584273,1001
1749980101.358536,1294
1749980101.3586574,1806
1749980101.3587372,2199
1749980101.3588119,2291
1749980101.358885,2109
1749980101.3589592,1810
1749980101.3590484,1508
1749980101.3591228,1242
1749980101.3591964,1007
1749980101.35927,964
1749980101.3594096,1280
1749980101.3594894,1852
1749980101.3595695,2312
1749980101.359649,2428
1749980101.3597276,2239
1749980101.3598073,1936
1749980101.3598876,1654
1749980101.3599706,1401
1749980101.3600497,1126
1749980101.3601294,973
1749980101.3602126,1185
1749980101.3602922,1741
1749980101.3603714,2274
1749980101.360451,2465
1749980101.360531,2308
1749980101.3606107,1999
1749980101.3606908,1714
1749980101.3607714,1471
1749980101.360851,1201
1749980101.360931,996
1749980101.3610103,1117
1749980101.3614337,1616
1749980101.361525,2180
1749980101.3616436,2451
1749980101.3617427,2362
1749980101.361826,2066
1749980101.3619084,1757
1749980101.361981,1497
1749980101.3620863,1244
1749980101.3621686,1029
1749980101.3622513,1077
1749980101.3623335,1475
1749980101.362416,2000
1749980101.3706381,2311
1749980101.3707807,2302
1749980101.3709323,2050
1749980101.3710434,1728
1749980101.3711514,1436
1749980101.3712761,1190
1749980101.3713844,1004
1749980101.371492,1050
1749980101.3715994,1414
1749980101.3717763,1919
1749980101.3718817,2250
1749980101.3719854,2287
1749980101.372103,2080
1749980101.372207,1775
1749980101.3723097,1470
1749980101.3745518,1200
1749980101.374675,984
1749980101.3747795,1000
1749980101.3748837,1368
1749980101.3749876,1929
1749980101.3751018,2325
1749980101.3752053,2387
1749980101.375309,2177
1749980101.3754125,1877
1749980101.3755152,1593
1749980101.3756182,1328
1749980101.3757217,1058
1749980101.375825,965
1749980101.3759282,1252
1749980101.3760471,1831
1749980101.3761494,2316
1749980101.3762522,2448
1749980101.3765137,2259
1749980101.376618,1953
1749980101.376721,1676
1749980101.3768237,1429
1749980101.3769221,1150
1749980101.376993,975
1749980101.3770618,1154
1749980101.3771212,1684
1749980101.3771863,2215
1749980101.3772569,2424
1749980101.3773277,2287
1749980101.3773978,1981
1749980101.377468,1683
1749980101.377538,1430
1749980101.3776085,1167
1749980101.3776784,979
1749980101.3777432,1108
1749980101.3778138,1599
1749980101.3778834,2150
1749980101.37796,2411
1749980101.378021,2318
1749980101.378091,2017
1749980101.3781638,1704
1749980101.378235,1446
1749980101.3783052,1201
1749980101.3783877,999
1749980101.378458,1060
1749980101.3785298,1472
1749980101.3786013,2008
1749980101.3967018,2319
1749980101.4220889,2300
1749980101.4222722,2046
1749980101.4223502,1736
1749980101.4224265,1457
1749980101.422502,1202
1749980101.4225776,985
1749980101.4226537,1008
1749980101.4227278,1385
1749980101.4269803,1930
1749980101.4586952,2286
1749980101.4588122,2311
1749980101.4589357,2077
1749980101.4592078,1768
1749980101.4593346,1480
1749980101.4595764,1224
1749980101.459687,995
1749980101.45981,987
1749980101.459917,1353
1749980101.4600227,1944
1749980101.4601288,2378
1749980101.4602466,2454
1749980101.4603524,2230
1749980101.4604583,1913
1749980101.4605749,1630
1749980101.4607096,1389
1749980101.4608119,1136
1749980101.4623818,1017
1749980101.4696832,1231
1749980101.469803,1732
1749980101.4699187,2189
1749980101.470033,2356
1749980101.4701474,2221
1749980101.4702601,1930
1749980101.470377,1626
1749980101.4704902,1358
1749980101.4706056,1104
1749980101.4710116,985
1749980101.4711237,1196
1749980101.4712355,1709
1749980101.4713483,2198
1749980101.47146,2385
1749980101.4715722,2256
1749980101.471684,1965
1749980101.4718099,1668
1749980101.4719238,1404
1749980101.4720368,1137
1749980101.4721503,971
1749980101.4722629,1152
1749980101.4723485,1701
1749980101.4724264,2283
1749980101.4725058,2534
1749980101.472586,2411
1749980101.4726653,2104
1749980101.4727447,1818
1749980101.4728239,1583
1749980101.4729016,1317
1749980101.4729807,1061
1749980101.4730551,1098
1749980101.4731243,1548
1749980101.473204,2146
1749980101.4732814,2482
1749980101.4733603,2438
1749980101.4734395,2156
1749980101.473518,1859
1749980101.4735968,1611
1749980101.473676,1353
1749980101.4737546,1086
1749980101.4738333,1051
1749980101.4739122,1406
1749980101.4739835,1964
1749980101.4740624,2335
1749980101.474141,2360
1749980101.4742227,2121
1749980101.4743104,1819
1749980101.4743893,1546
1749980101.474468,1292
1749980101.4745471,1046
1749980101.4746265,1009
1749980101.4747064,1345
1749980101.4747856,1910
1749980101.4748642,2317
1749980101.4749455,2375
1749980101.4775658,2153
1749980101.5001628,1853
1749980101.551806,1584
1749980101.5952344,1337
1749980101.6133838,1075
1749980101.7002888,981
1749980101.7255938,1266
1749980101.7541678,1844
1749980101.766007,2324
1749980101.7924116,2442
1749980101.7924917,2238
1749980101.820656,1927
1749980101.8519182,1660
1749980101.8520317,1426
1749980101.8521383,1154
1749980101.8522408,985
1749980101.8523452,1177
1749980101.8524477,1725
1749980101.8534338,2261
1749980101.8535485,2456
1749980101.8536549,2299
1749980101.853768,1993
1749980101.854193,1716
1749980101.8545575,1477
1749980101.854631,1197
1749980101.8547013,980
1749980101.8547711,1110
1749980101.8548422,1641
1749980101.8549123,2234
1749980101.854982,2499
1749980101.8637094,2379
1749980101.863796,2068
1749980101.8638718,1781
1749980101.8639455,1547
1749980101.8640184,1284
1749980101.864092,1032
1749980101.8642058,1072
1749980101.8657825,1526
1749980101.8698928,2126
1749980101.8699641,2460
1749980101.870031,2410
1749980101.8701043,2116
1749980101.8701775,1807
1749980101.8705056,1558
1749980101.8708875,1318
1749980101.8709626,1077
1749980101.8710365,1058
1749980101.871109,1409
1749980101.8711817,1958
1749980101.871255,2334
1749980101.8713603,2373
1749980101.8714776,2140
1749980101.871551,1824
1749980101.8716238,1538
1749980101.871709,1292
1749980101.8717825,1070
1749980101.871856,1042
1749980101.871928,1348
1749980101.872001,1866
1749980101.8720737,2253
1749980101.872146,2332
1749980101.8722188,2142
1749980101.8722918,1844
1749980101.8723648,1547
1749980101.8724391,1272
1749980101.8725123,1018
1749980101.8725848,964
1749980101.8726568,1296
1749980101.872729,1903
1749980101.8728015,2386
1749980101.872874,2495
1749980101.8729475,2282
1749980101.8730202,1969
1749980101.873085,1701
1749980101.873148,1463
1749980101.8732197,1183
1749980101.8732924,1003
1749980101.873372,1183
1749980101.8734443,1724
1749980101.8791378,2266
1749980101.879219,2479
1749980101.879304,2340
1749980101.8793774,2039
1749980101.8794522,1757
1749980101.879527,1518
1749980101.8796015,1250
1749980101.8796809,1032
1749980101.8797555,1119
1749980101.8798292,1575
1749980101.8799024,2115
1749980101.8799758,2387
1749980101.8800516,2315
1749980101.8801267,2030
1749980101.8802035,1722
1749980101.8802822,1459
1749980101.8803568,1205
1749980101.8804297,1008
1749980101.8805032,1108
1749980101.880578,1590
1749980101.8806505,2183
1749980101.8807242,2497
1749980101.8807971,2431
1749980101.880872,2136
1749980101.8809454,1836
1749980101.8810198,1595
1749980101.8819082,1344
1749980101.8819778,1081
1749980101.8820415,1070
1749980101.882115,1481
1749980101.882192,2105
1749980101.8822658,2500
1749980101.8823435,2490
1749980101.8824658,2207
1749980101.8829122,1908
1749980101.8829865,1675
1749980101.8853598,1429
1749980101.9852278,1129
1749980101.9853513,1027
1749980101.9854584,1359
1749980101.9913752,1984
1749980102.0012076,2445
1749980102.0012898,2500
1749980102.0013633,2244
1749980102.009922,1939
1749980102.0100183,1701
1749980102.01057,1466
1749980102.0106716,1166
1749980102.010765,1013
1749980102.0108557,1280
1749980102.010945,1892
1749980102.0297441,2409
1749980102.0424469,2523
1749980102.1034474,2292
1749980102.103534,1970
1749980102.1036048,1718
1749980102.1043077,1501
1749980102.1051133,1223
1749980102.1051874,1027
1749980102.1115196,1199
1749980102.1116009,1746
1749980102.111677,2288
1749980102.1119134,2478
1749980102.1285102,2307
1749980102.1564128,1990
1749980102.1565259,1713
1749980102.1566246,1487
1749980102.1567225,1228
1749980102.156821,1020
1749980102.1569166,1132
1749980102.1570141,1620
1749980102.1571107,2173
1749980102.1572542,2424
1749980102.1573653,2316
1749980102.157464,2014
1749980102.157563,1721
1749980102.1576614,1482
1749980102.1577601,1234
1749980102.1578588,1010
1749980102.1579545,1060
1749980102.1580305,1486
1749980102.1581285,2044
1749980102.1582263,2355
1749980102.1583242,2310
1749980102.22657,2033
1749980102.2295566,1731
1749980102.2297611,1475
1749980102.229875,1224
1749980102.2299836,988
1749980102.2302213,1006
1749980102.2303395,1422
1749980102.2304564,2029
1749980102.230571,2410
1749980102.230688,2407
1749980102.230804,2135
1749980102.2309208,1832
1749980102.2310343,1589
1749980102.2311504,1353
1749980102.2312741,1084
1749980102.2313595,1002
1749980102.2314544,1320
1749980102.2315326,1915
1749980102.2316117,2367
1749980102.2316988,2442
1749980102.2372131,2206
1749980102.2392156,1891
1749980102.2470748,1627
1749980102.24716,1393
1749980102.2472472,1125
1749980102.247325,995
1749980102.2473993,1230
1749980102.2541625,1776
1749980102.2647789,2259
1749980102.2655184,2407
1749980102.2655954,2232
1749980102.2656698,1924
1749980102.265757,1630
1749980102.2658305,1376
1749980102.2659035,1116
1749980102.2659678,970
1749980102.266034,1156
1749980102.2661064,1661
1749980102.2661796,2156
1749980102.2936804,2348
1749980102.293779,2220
1749980102.2938595,1923
1749980102.2939324,1617
1749980102.2939959,1355
1749980102.2940738,1107
1749980102.2941542,947
1749980102.2942321,1088
1749980102.2943096,1555
1749980102.2943878,2072
1749980102.2944663,2325
1749980102.294544,2258
1749980102.2946217,1985
1749980102.2946994,1673
1749980102.2947774,1399
1749980102.2948556,1152
1749980102.2949336,965
1749980102.2950113,1037
1749980102.295102,1434
1749980102.2951803,1944
1749980102.295258,2248
1749980102.295336,2247
1749980102.3133347,2011
1749980102.348526,1699
1749980102.3487303,1406
1749980102.3488517,1150
1749980102.3489718,952
1749980102.3492155,995
1749980102.3505845,1373
1749980102.3507128,1908
1749980102.3508332,2259
1749980102.3509536,2294
1749980102.3510883,2074
1749980102.3512223,1773
1749980102.3539913,1485
1749980102.354062,1220
1749980102.3541355,978
1749980102.3542073,961
1749980102.3542795,1328
1749980102.3543506,1930
1749980102.3544226,2367
1749980102.3544931,2434
1749980102.3545651,2204
1749980102.3546374,1898
1749980102.354709,1630
1749980102.3547802,1374
1749980102.3548517,1084
1749980102.354923,955
1749980102.3549955,1233
1749980102.377584,1845
1749980102.4268014,2371
1749980102.4557173,2515
1749980102.4731495,2316
1749980102.474299,2008
1749980102.47438,1748
1749980102.4744513,1517
1749980102.4745212,1230
1749980102.4745955,1022
1749980102.4746675,1169
1749980102.4747393,1684
1749980102.4748104,2214
1749980102.4748876,2425
1749980102.4749627,2290
1749980102.4750621,1987
1749980102.4751344,1691
1749980102.4752061,1439
1749980102.4752784,1180
1749980102.4753494,994
1749980102.475421,1122
1749980102.4754941,1604
1749980102.4755673,2145
1749980102.4756408,2404
1749980102.4757142,2321
1749980102.4757874,2030
1749980102.4758577,1718
1749980102.475931,1455
1749980102.4760044,1214
1749980102.476078,1021
1749980102.4761426,1078
1749980102.4762166,1467
1749980102.47629,1979
1749980102.4763625,2288
1749980102.4764354,2286
1749980102.476507,2042
1749980102.4875646,1722
1749980102.4955559,1431
1749980102.4956942,1190
1749980102.495836,1006
1749980102.4959676,1043
1749980102.4961421,1391
1749980102.4962735,1893
1749980102.4964015,2234
1749980102.4965308,2285
1749980102.4966626,2085
1749980102.4967477,1780
1749980102.4968326,1471
1749980102.4969158,1194
1749980102.4971557,967
1749980102.4974043,969
1749980102.497504,1332
1749980102.4976022,1907
1749980102.4978557,2322
1749980102.4981332,2393
1749980102.4982684,2179
1749980102.498386,1873
1749980102.498486,1588
1749980102.498585,1326
1749980102.498684,1056
1749980102.4987712,949
1749980102.4988902,1217
1749980102.49899,1790
1749980102.4990864,2286
1749980102.4991832,2437
1749980102.499279,2263
1749980102.4993923,1959
1749980102.4994886,1677
1749980102.4995847,1433
1749980102.4996812,1165
1749980102.4998121,983
1749980102.4999087,1121
1749980102.5000048,1593
1749980102.500101,2091
1749980102.5018408,2319
1749980102.5019815,2232
1749980102.5030408,1957
1749980102.503126,1652
1749980102.5032039,1378
1749980102.503281,1120
1749980102.5033584,959
1749980102.5034359,1107
1749980102.5035129,1586
1749980102.5035894,2108
1749980102.5036662,2349
1749980102.5037427,2263
1749980102.503819,1987
1749980102.5038958,1696
1749980102.503972,1438
1749980102.5040486,1178
1749980102.5041256,966
1749980102.504202,1052
1749980102.5042791,1525
1749980102.5043595,2123
1749980102.5044363,2449
1749980102.5045156,2393
1749980102.504592,2100
1749980102.504669,1798
1749980102.5047462,1559
1749980102.504823,1318
1749980102.5048995,1055
1749980102.5049763,1003
1749980102.5050747,1340
1749980102.5051448,1904
1749980102.5052216,2302
1749980102.5052984,2350
1749980102.5053747,2116
1749980102.5060704,1810
1749980102.5062635,1541
1749980102.5063415,1296
1749980102.5064225,1047
1749980102.5066347,988
1749980102.506713,1303
1749980102.5067904,1870
1749980102.5068676,2304
1749980102.506944,2386
1749980102.5070205,2169
1749980102.5070965,1858
1749980102.5071716,1582
1749980102.507248,1335
1749980102.5073242,1075
1749980102.5074003,970
1749980102.5074763,1243
1749980102.5075521,1826
1749980102.507627,2326
1749980102.507703,2462
1749980102.5077794,2263
1749980102.5078807,1949
1749980102.5079575,1674
1749980102.5080338,1436
1749980102.5081098,1162
1749980102.5081854,981
1749980102.5082617,1161
1749980102.5083375,1709
1749980102.5084288,2263
1749980102.5518305,2481
1749980102.551955,2334
1749980102.5520575,2019
1749980102.5521598,1730
1749980102.5522609,1497
1749980102.552362,1242
1749980102.5524626,1026
1749980102.5525637,1100
1749980102.5526648,1540
1749980102.5527654,2073
1749980102.5528657,2349
1749980102.5529666,2285
1749980102.5530615,2008
1749980102.5531495,1703
1749980102.553251,1435
1749980102.553352,1170
1749980102.5534518,960
1749980102.5535362,1046
1749980102.5753248,1517
1749980102.5754066,2105
1749980102.575481,2414
1749980102.575554,2345
1749980102.5756278,2048
1749980102.575701,1749
1749980102.575774,1510
1749980102.5758464,1261
1749980102.5759192,1000
1749980102.5759919,990
1749980102.576064,1408
1749980102.5761366,2048
1749980102.5762086,2462
1749980102.5762813,2460
1749980102.576354,2171
1749980102.5764263,1857
1749980102.5764995,1615
1749980102.5765703,1380
1749980102.5766435,1095
1749980102.5767167,986
1749980102.5767887,1283
1749980102.576861,1876
1749980102.5769336,2341
1749980102.5770109,2431
1749980102.5770745,2199
1749980102.5771372,1877
1749980102.5772104,1605
1749980102.5772917,1376
1749980102.5773642,1124
1749980102.5774364,988
1749980102.5778718,1180
1749980102.577946,1666
1749980102.5780113,2115
1749980102.578084,2277
1749980102.5781567,2140
1749980102.578229,1846
1749980102.5783014,1537
1749980102.5783868,1267
1749980102.578459,1028
1749980102.5785315,933
1749980102.5786052,1169
1749980102.578677,1696
1749980102.5787497,2187
1749980102.5788226,2362
1749980102.5788949,2223
1749980102.5789669,1931
1749980102.5790386,1640
1749980102.5791104,1380
1749980102.5791826,1113
1749980102.579264,933
1749980102.5793362,1090
1749980102.579409,1618
1749980102.5794811,2199
1749980102.5795534,2467
1749980102.5796251,2366
1749980102.5796971,2066
1749980102.5797694,1776
1749980102.5798407,1539
1749980102.6201138,1285
1749980102.6201997,1032
1749980102.6202738,1030
1749980102.6203783,1412
1749980102.6207874,1963
1749980102.621096,2312
1749980102.621164,2318
1749980102.621238,2066
1749980102.6213322,1749
1749980102.6214135,1467
1749980102.6214879,1216
1749980102.6215608,996
1749980102.621634,997
1749980102.623275,1344
1749980102.6233578,1874
1749980102.6234314,2239
1749980102.6235049,2289
1749980102.6235974,2075
1749980102.623671,1769
1749980102.623744,1475
1749980102.6238165,1215
1749980102.6239228,988
1749980102.6239953,973
1749980102.6240673,1320
1749980102.6241388,1894
1749980102.62421,2317
1749980102.6242814,2392
1749980102.6243675,2179
1749980102.6244457,1876
1749980102.624517,1600
1749980102.6245902,1350
1749980102.6246614,1082
1749980102.6247327,965
1749980102.62482,1218
1749980102.6248913,1780
1749980102.6249623,2274
1749980102.62505,2423
1749980102.6251113,2246
1749980102.625193,1942
1749980102.6252663,1666
1749980102.625338,1428
1749980102.6254086,1163
1749980102.62548,978
1749980102.625551,1116
1749980102.6256351,1599
1749980102.6257067,2112
1749980102.6257784,2344
1749980102.6258495,2246
1749980102.6259162,1956
1749980102.6259809,1648
1749980102.626088,1391
1749980102.626164,1155
1749980102.6262352,993
1749980102.626306,1106
1749980102.6263769,1535
1749980102.6264498,2031
1749980102.6265206,2289
1749980102.6265914,2242
1749980102.6266625,1986
1749980102.626733,1681
1749980102.6268039,1404
1749980102.6268754,1151
1749980102.6269462,963
1749980102.6270175,1049
1749980102.6270883,1482
1749980102.627159,2033
1749980102.6272295,2348
1749980102.6273012,2324
1749980102.6273723,2066
1749980102.6274428,1764
1749980102.6275136,1497
1749980102.627584,1244
1749980102.6276546,1009
1749980102.6277251,1020
1749980102.6277962,1419
1749980102.6278665,2018
1749980102.6279373,2413
1749980102.628008,2435
1749980102.628079,2182
1749980102.6281493,1882
1749980102.6282203,1634
1749980102.6282911,1394
1749980102.6302218,1116
1749980102.6303158,1007
1749980102.63039,1288
1749980102.6304607,1859
1749980102.630531,2319
1749980102.630601,2425
1749980102.6306708,2218
1749980102.6307404,1911
1749980102.630811,1638
1749980102.6308808,1394
1749980102.6309507,1129
1749980102.631021,1009
1749980102.6310909,1263
1749980102.631161,1836
1749980102.631231,2338
1749980102.6313002,2483
1749980102.6313708,2294
1749980102.6314414,1981
1749980102.631512,1706
1749980102.631582,1476
1749980102.631652,1218
1749980102.631747,1040
1749980102.631819,1191
1749980102.6318905,1689
1749980102.632668,2208
1749980102.6327457,2422
1749980102.6328177,2300
1749980102.632889,2011
1749980102.63296,1728
1749980102.6330316,1485
1749980102.6331034,1224
1749980102.633174,1022
1749980102.6332448,1136
1749980102.633316,1626
1749980102.6333873,2192
1749980102.6334581,2461
1749980102.6335292,2364
1749980102.6336095,2065
1749980102.6336834,1773
1749980102.6337526,1539
1749980102.6338236,1292
1749980102.6338935,1059
1749980102.633955,1100
1749980102.6340282,1540
1749980102.634274,2134
1749980102.634347,2472
1749980102.6344202,2428
1749980102.634492,2145
1749980102.634564,1853
1749980102.6346354,1619
1749980102.6347075,1375
1749980102.6738787,1106
