1751083914.6642923,2175
1751083914.7100475,1846
1751083914.711607,1609
1751083914.713713,1488
1751083914.7157028,1615
1751083914.7162673,2032
1751083914.7168097,2543
1751083914.7176335,2833
1751083914.7181659,2817
1751083914.718686,2572
1751083914.7192032,2235
1751083914.7197206,1901
1751083914.720247,1650
1751083914.7207677,1507
1751083914.7212965,1591
1751083914.721826,1972
1751083914.722339,2492
1751083914.7231033,2832
1751083914.7241893,2863
1751083914.7247977,2649
1751083914.725441,2316
1751083914.725996,1970
1751083914.726518,1701
1751083914.7271252,1540
1751083914.7276618,1577
1751083914.7287242,1904
1751083914.729445,2407
1751083914.7302356,2785
1751083914.731338,2871
1751083914.7324328,2705
1751083914.7332516,2391
1751083914.7346115,2036
1751083914.7357392,1743
1751083914.7364564,1563
1751083914.7371862,1566
1751083914.7379336,1853
1751083914.7386808,2346
1751083914.739337,2762
1751083914.7400427,2899
1751083914.740759,2775
1751083914.7414675,2475
1751083914.7422035,2113
1751083914.7428522,1795
1751083914.7434385,1594
1751083914.7439528,1560
1751083914.7448277,1800
1751083914.7464275,2263
1751083914.7471156,2705
1751083914.747822,2890
1751083914.748553,2813
1751083914.7492156,2543
1751083914.7499673,2188
1751083914.7506244,1849
1751083914.751382,1615
1751083914.7520788,1535
1751083914.752837,1729
1751083914.7535684,2184
1751083914.7542856,2671
1751083914.7552245,2912
1751083914.7562711,2865
1751083914.757091,2607
1751083914.7578032,2260
1751083914.7584925,1917
1751083914.7591734,1655
1751083914.7599688,1518
1751083914.7606852,1646
1751083914.7614229,2083
1751083914.762207,2625
1751083914.7629588,2928
1751083914.7658083,2895
1751083914.7665849,2628
1751083914.7670207,2288
1751083914.7673602,1961
1751083914.7677538,1688
1751083914.7683384,1485
1751083914.7686245,1517
1751083914.7690926,1919
1751083914.769563,2528
1751083914.7698162,2938
1751083914.770146,2947
1751083914.770381,2657
1751083914.7706356,2282
1751083914.7710226,1957
1751083914.7714376,1707
1751083914.7716508,1490
1751083914.7721474,1409
1751083914.7727902,1651
1751083914.7736142,2167
1751083914.7744966,2622
1751083914.7750869,2761
1751083914.775856,2599
1751083914.7769825,2276
1751083914.777492,1937
1751083914.7779121,1664
1751083914.7788618,1475
1751083914.779615,1436
1751083914.7801042,1694
1751083914.780427,2203
1751083914.7815342,2666
1751083914.7821229,2822
1751083914.7826033,2680
1751083914.7838247,2363
1751083914.7841384,2017
1751083914.784991,1729
1751083914.786079,1535
1751083914.7866101,1470
1751083914.7880375,1675
1751083914.7887611,2143
1751083914.7893655,2629
1751083914.7897735,2846
1751083914.7901254,2765
1751083914.790578,2480
1751083914.7911494,2135
1751083914.7919095,1823
1751083914.7923384,1604
1751083914.792639,1504
1751083914.7931566,1657
1751083914.7955306,2091
1751083914.7966042,2596
1751083914.797463,2864
1751083914.7977672,2825
1751083914.7982285,2568
1751083914.7995481,2231
1751083914.7997832,1908
1751083914.8004377,1664
1751083914.8009663,1522
1751083914.8018441,1613
1751083914.802463,2010
1751083914.8030891,2542
1751083914.803662,2873
1751083914.8037534,2881
1751083914.8064704,2641
1751083914.8157568,2300
1751083914.8177838,1967
1751083914.8179188,1711
1751083914.8180873,1545
1751083914.8183405,1577
1751083914.8185668,1918
1751083914.818814,2448
1751083914.8190653,2838
1751083914.8193681,2908
1751083914.8196003,2705
1751083914.8198664,2367
1751083914.820121,2017
1751083914.8203495,1740
1751083914.8205838,1556
1751083914.8208108,1544
1751083914.8216121,1830
1751083914.8218417,2341
1751083914.822078,2772
1751083914.8223317,2899
1751083914.8226216,2744
1751083914.8228173,2421
1751083914.8230407,2063
1751083914.8232446,1763
1751083914.8234618,1564
1751083914.8236756,1524
1751083914.8238509,1773
1751083914.8241272,2268
1751083914.8243597,2734
1751083914.8246357,2914
1751083914.8248742,2802
1751083914.8251045,2500
1751083914.8253338,2140
1751083914.8255742,1817
1751083914.825792,1593
1751083914.8260353,1512
1751083914.8262582,1711
1751083914.8265197,2182
1751083914.8269358,2685
1751083914.827266,2925
1751083914.8275533,2861
1751083914.8277857,2583
1751083914.8281198,2226
1751083914.8284557,1887
1751083914.8287084,1640
1751083914.8289535,1518
1751083914.8292391,1652
1751083914.829539,2077
1751083914.8306494,2595
1751083914.8309522,2888
1751083914.8312237,2871
1751083914.831532,2618
1751083914.8324933,2267
1751083914.83275,1922
1751083914.8330057,1663
1751083914.8332646,1519
1751083914.833558,1603
1751083914.8339164,1988
1751083914.8341036,2516
1751083914.8343024,2866
1751083914.8345041,2902
1751083914.8346848,2683
1751083914.834858,2339
1751083914.8350444,1982
1751083914.8352327,1701
1751083914.8353748,1527
1751083914.8355482,1556
1751083914.8357291,1887
1751083914.8358667,2407
1751083914.836041,2803
1751083914.8362474,2890
1751083914.8364117,2708
1751083914.8366032,2377
1751083914.836763,2015
1751083914.8369513,1719
1751083914.8371418,1528
1751083914.8373547,1513
1751083914.8374984,1793
1751083914.837611,2297
1751083914.8377664,2737
1751083914.837888,2886
1751083914.8380437,2755
1751083914.8404808,2446
1751083914.8418941,2085
1751083914.8424726,1770
1751083914.8425896,1560
1751083914.8442962,1508
1751083914.8468976,1742
1751083914.847406,2224
1751083914.847931,2694
1751083914.8485622,2888
1751083914.8491995,2793
1751083914.849667,2499
1751083914.8500245,2139
1751083914.8502948,1809
1751083914.850814,1577
1751083914.851151,1484
1751083914.8513782,1662
1751083914.8516352,2116
1751083914.8518527,2618
1751083914.8520792,2872
1751083914.8522916,2823
1751083914.8525507,2554
1751083914.8528287,2201
1751083914.8530924,1861
1751083914.8534625,1614
1751083914.8538399,1489
1751083914.8546038,1611
1751083914.8551674,2023
1751083914.8556776,2543
1751083914.8559926,2857
1751083914.8566766,2862
1751083914.8570614,2624
1751083914.8574011,2273
1751083914.8578033,1916
1751083914.8580918,1645
1751083914.8583302,1490
1751083914.8587134,1558
1751083914.8596296,1924
1751083914.859992,2448
1751083914.861178,2809
1751083914.8622906,2861
1751083914.8631983,2657
1751083914.8633268,2319
1751083914.8641994,1960
1751083914.8642964,1673
1751083914.8645666,1493
1751083914.865707,1510
1751083914.8660812,1829
1751083914.866278,2350
1751083914.8664641,2763
1751083914.866674,2868
1751083914.8668854,2698
1751083914.867096,2371
1751083914.8673072,2010
1751083914.867507,1711
1751083914.8677778,1514
1751083914.8679338,1486
1751083914.8681304,1750
1751083914.868343,2250
1751083914.8685393,2701
1751083914.86875,2860
1751083914.8689594,2731
1751083914.8691554,2420
1751083914.8693635,2057
1751083914.8695605,1739
1751083914.8697789,1520
1751083914.8699715,1448
1751083914.8701844,1660
1751083914.8703806,2137
1751083914.870576,2628
1751083914.8707995,2847
1751083914.872657,2763
1751083914.8727841,2468
1751083914.8729343,2104
1751083914.873062,1769
1751083914.8731873,1533
1751083914.8733299,1429
1751083914.8746333,1590
1751083914.8747811,2036
1751083914.8749704,2554
1751083914.8772526,2833
1751083914.8786943,2802
1751083914.8788285,2537
1751083914.8789542,2177
1751083914.879086,1830
1751083914.8792346,1580
1751083914.87936,1450
1751083914.8796225,1549
1751083914.8797524,1926
1751083914.879882,2424
1751083914.8800952,2747
1751083914.8805895,2786
1751083914.881508,2585
1751083914.8838859,2248
1751083914.8842335,1879
1751083914.8845425,1598
1751083914.884828,1453
1751083914.8851721,1533
1751083914.885595,1893
1751083914.886281,2395
1751083914.8865533,2751
1751083914.8873165,2825
1751083914.8874516,2660
1751083914.8877718,2343
1751083914.8878675,1973
1751083914.8880455,1670
1751083914.8883924,1499
1751083914.8888657,1533
1751083914.8891706,1851
1751083914.8895168,2348
1751083914.8900256,2747
1751083914.8913543,2870
1751083914.892293,2743
1751083914.8928103,2444
1751083914.8933003,2076
1751083914.8938162,1752
1751083914.8942547,1551
1751083914.8947797,1533
1751083914.895619,1799
1751083914.8964953,2280
1751083914.8966355,2720
1751083914.8984716,2895
1751083914.8987787,2804
1751083914.899213,2517
1751083914.899336,2145
1751083914.899466,1800
1751083914.8996468,1574
1751083914.899783,1513
1751083914.899908,1722
1751083914.9000676,2172
1751083914.9006448,2641
1751083914.9007976,2872
1751083914.9009216,2832
1751083914.9010873,2574
1751083914.9012358,2205
1751083914.9013767,1837
1751083914.9015663,1583
1751083914.9017017,1489
1751083914.9025004,1654
1751083914.9030907,2076
1751083914.903229,2561
1751083914.9039922,2835
1751083914.9045503,2837
1751083914.904925,2615
1751083914.9050796,2267
1751083914.9052022,1893
1751083914.9053245,1612
1751083914.9055033,1479
1751083914.9056327,1592
1751083914.9057734,1981
1751083914.9058955,2482
1751083914.9060178,2807
1751083914.9061396,2853
1751083914.9062612,2662
1751083914.90641,2326
1751083914.9065316,1944
1751083914.9066985,1642
1751083914.9068964,1483
1751083914.9070396,1551
1751083914.9071622,1903
1751083914.907287,2407
1751083914.9074721,2778
1751083914.9076455,2870
1751083914.9077668,2717
1751083914.907888,2398
1751083914.9080338,2014
1751083914.908193,1688
1751083914.908315,1498
1751083914.9084365,1516
1751083914.9086735,1820
1751083914.9088156,2316
1751083914.9090157,2732
1751083914.9092114,2877
1751083914.9103506,2765
1751083914.9105456,2463
1751083914.9158294,2078
1751083914.9418988,1730
1751083915.0523472,1514
1751083915.1392665,1486
1751083915.197598,1741
1751083915.3139682,2216
1751083915.3141062,2664
1751083915.3142316,2859
1751083915.3143418,2793
1751083915.3144505,2523
1751083915.314559,2151
1751083915.3146796,1788
1751083915.3147893,1542
1751083915.3148978,1469
1751083915.3150065,1673
1751083915.3151274,2121
1751083915.315236,2594
1751083915.3153446,2834
1751083915.3154523,2804
1751083915.315577,2562
1751083915.3156862,2203
1751083915.31946,1829
1751083915.3195715,1556
1751083915.319682,1442
1751083915.3198102,1593
1751083915.3199193,2012
1751083915.3200347,2508
1751083915.3201437,2799
1751083915.320265,2811
1751083915.320374,2597
1751083915.3204834,2256
1751083915.3205924,1881
1751083915.3207133,1594
1751083915.320822,1449
1751083915.3209307,1547
1751083915.32104,1927
1751083915.3211586,2434
1751083915.3212674,2774
1751083915.3213758,2831
1751083915.3214846,2650
1751083915.3216062,2321
1751083915.3217146,1941
1751083915.3218298,1630
1751083915.3219385,1453
1751083915.3220587,1497
1751083915.3221672,1829
1751083915.3222759,2331
1751083915.3223846,2715
1751083915.3225055,2820
1751083915.3226144,2678
1751083915.3227232,2371
1751083915.3228316,1998
1751083915.322951,1672
1751083915.323059,1469
1751083915.3232913,1463
1751083915.3369803,1750
1751083915.3744173,2247
1751083915.410774,2678
1751083915.4575553,2833
1751083915.4950976,2724
1751083915.5237336,2430
1751083915.5956779,2059
1751083915.6982062,1717
1751083915.7693877,1491
1751083915.8507736,1441
1751083915.8508856,1676
1751083915.8512502,2152
1751083915.9393663,2621
1751083915.9414594,2832
1751083915.953412,2767
1751083916.034729,2497
1751083916.0606198,2131
1751083916.0607374,1771
1751083916.0608418,1517
1751083916.0609446,1421
1751083916.0611174,1603
1751083916.061262,2054
1751083916.0807896,2556
1751083916.082861,2825
1751083916.082949,2807
1751083916.1068711,2565
1751083916.159906,2212
1751083916.1955564,1847
1751083916.195639,1575
1751083916.1957057,1443
1751083916.1957712,1563
1751083916.195836,1968
1751083916.1959007,2484
1751083916.1959655,2811
1751083916.1960735,2849
1751083916.1961412,2645
1751083916.196207,2303
1751083916.1962714,1923
1751083916.1963356,1622
1751083916.1964002,1452
1751083916.197433,1513
1751083916.1975026,1874
1751083916.1975691,2399
1751083916.1976345,2786
1751083916.197699,2882
1751083916.1978095,2719
1751083916.1978762,2386
1751083916.19794,1994
1751083916.1980047,1670
1751083916.1980693,1481
1751083916.1981342,1502
1751083916.1992693,1819
1751083916.199347,2326
1751083916.1994612,2742
1751083916.1995466,2882
1751083916.1996157,2764
1751083916.1996822,2458
1751083916.1997483,2064
1751083916.199814,1708
1751083916.19988,1482
1751083916.199965,1453
1751083916.2000306,1720
1751083916.2001073,2214
1751083916.2001736,2680
1751083916.20024,2899
1751083916.2003057,2856
1751083916.2301314,2577
1751083916.23484,2139
1751083916.2354434,1677
1751083916.2355912,1342
1751083916.237032,1227
1751083916.2371705,1434
1751083916.2373712,1894
1751083916.2375047,2356
1751083916.2376332,2576
1751083916.238117,2545
1751083916.2392654,2312
1751083916.239435,1953
1751083916.2396014,1562
1751083916.2402396,1265
1751083916.2419999,1136
1751083916.242362,1283
1751083916.242861,1697
1751083916.243316,2177
1751083916.2437353,2456
1751083916.2439218,2477
1751083916.2442493,2278
1751083916.244693,1937
1751083916.2449913,1547
1751083916.245896,1245
1751083916.2468467,1102
1751083916.247163,1216
1751083916.247962,1611
1751083916.2482142,2120
1751083916.2508907,2457
1751083916.2510045,2520
1751083916.2511888,2344
1751083916.2512925,2010
1751083916.2513947,1615
1751083916.2514973,1298
1751083916.251599,1135
1751083916.2517014,1211
1751083916.2520502,1576
1751083916.296216,2091
1751083916.2970836,2468
1751083916.297358,2560
1751083916.2974825,2404
1751083916.297606,2088
1751083916.2981424,1718
1751083916.3039613,1415
1751083916.3040404,1247
1751083916.3041158,1273
1751083916.304188,1573
1751083916.304629,2062
1751083916.3051832,2481
1751083916.3053212,2638
1751083916.3062503,2540
1751083916.3063736,2246
1751083916.3066092,1864
1751083916.3077698,1527
1751083916.307953,1340
1751083916.308402,1351
1751083916.3085482,1632
1751083916.3305783,2106
1751083916.3307202,2536
1751083916.330824,2718
1751083916.3309278,2660
1751083916.3310957,2411
1751083916.331201,2053
1751083916.3313038,1687
1751083916.3314075,1436
1751083916.3315108,1373
1751083916.3316138,1599
1751083916.3316917,2063
1751083916.3317661,2532
1751083916.331842,2751
1751083916.3319175,2709
1751083916.3319914,2478
1751083916.3320656,2147
1751083916.3321404,1796
1751083916.3322148,1535
1751083916.3322887,1423
1751083916.3323646,1577
1751083916.3324387,2006
1751083916.332513,2508
1751083916.332587,2789
1751083916.3326607,2783
1751083916.332735,2559
1751083916.3328083,2226
1751083916.3328817,1877
1751083916.3329551,1618
1751083916.3330286,1494
1751083916.3331015,1601
1751083916.3331752,1995
1751083916.3332486,2535
1751083916.3333485,2926
1751083916.3334227,3037
1751083916.3334968,2892
1751083916.3335705,2574
1751083916.3336437,2196
1751083916.3337178,1906
1751083916.3337913,1783
1751083916.3338647,1886
1751083916.3339384,2242
1751083916.3340118,2713
1751083916.3340855,3043
1751083916.334159,3128
1751083916.3342326,3027
1751083916.3343062,2784
1751083916.3343894,2434
1751083916.3344643,2067
1751083916.3345385,1799
1751083916.3346083,1759
1751083916.3346822,2061
1751083916.3347557,2584
1751083916.3348293,3010
1751083916.334903,3121
1751083916.3349764,2967
1751083916.3350496,2665
1751083916.3351169,2328
1751083916.3351781,2039
1751083916.3352518,1861
1751083916.3353257,1838
1751083916.3353994,2082
1751083916.3354733,2553
1751083916.335547,3014
1751083916.3356204,3221
1751083916.3356936,3162
1751083916.3357668,2898
1751083916.3358405,2521
1751083916.3359146,2123
1751083916.3359885,1815
1751083916.3360617,1673
1751083916.3361351,1826
1751083916.3362086,2256
1751083916.336282,2725
1751083916.3363562,2935
1751083916.3364296,2847
1751083916.3365028,2557
1751083916.3365781,2201
1751083916.3712559,1877
1751083916.3713377,1666
1751083916.3714125,1580
1751083916.3714864,1710
1751083916.3715591,2105
1751083916.3716333,2629
1751083916.371712,3002
1751083916.3717859,3101
1751083916.37187,2924
1751083916.3719647,2548
1751083916.372054,2106
1751083916.372128,1779
1751083916.3722,1651
1751083916.372273,1778
1751083916.372345,2154
1751083916.3724174,2617
1751083916.3724883,2916
1751083916.372561,2977
1751083916.3726885,2853
1751083916.4047568,2583
1751083916.406904,2209
1751083916.426286,1846
1751083916.4268212,1613
1751083916.4275413,1631
1751083916.4774165,1974
1751083916.4785366,2492
1751083916.4786167,2875
1751083916.4786766,2958
1751083916.478751,2805
1751083916.4788299,2514
1751083916.47896,2172
1751083916.4790401,1864
1751083916.479117,1658
1751083916.4915001,1625
1751083916.492204,1884
1751083916.492501,2376
1751083916.4928007,2835
1751083916.4933457,3023
1751083916.4935558,2929
1751083916.501631,2626
1751083916.5034773,2239
1751083916.503703,1900
1751083916.5038078,1705
1751083916.5038831,1685
1751083916.5039988,1918
1751083916.5040715,2368
1751083916.504143,2824
1751083916.504215,3053
1751083916.5042865,3029
1751083916.5045466,2789
1751083916.5046182,2420
1751083916.5046897,2030
1751083916.504761,1754
1751083916.504833,1659
1751083916.5049045,1843
1751083916.5049758,2281
1751083916.5050473,2764
1751083916.5051186,3026
1751083916.5051906,3023
1751083916.5052624,2809
1751083916.5053337,2467
1751083916.5054078,2086
1751083916.505479,1795
1751083916.505551,1670
1751083916.5056686,1806
1751083916.5101073,2210
1751083916.5102873,2702
1751083916.5103972,3001
1751083916.5105026,3033
1751083916.5107505,2856
1751083916.510856,2542
1751083916.5109603,2164
1751083916.5110643,1843
1751083916.511261,1666
1751083916.5113735,1733
1751083916.5114772,2093
1751083916.5115812,2598
1751083916.511684,2955
1751083916.5117865,3030
1751083916.5118897,2873
1751083916.548843,2564
1751083916.5999982,2191
1751083916.6047776,1872
1751083916.60542,1685
1751083916.605934,1702
1751083916.6062799,2004
1751083916.6255767,2495
1751083916.6611636,2906
1751083916.6613503,3052
1751083916.6627285,2948
1751083916.6631668,2652
1751083916.6632383,2263
1751083916.6633208,1910
1751083916.6633923,1700
1751083916.6634638,1689
1751083916.6635354,1957
1751083916.6636066,2427
1751083916.6639855,2856
1751083916.6640952,3030
1751083916.6642015,2957
1751083916.6643064,2689
1751083916.6644132,2317
1751083916.6645267,1948
1751083916.6646369,1704
1751083916.6647515,1645
1751083916.6648557,1865
1751083916.6649606,2319
1751083916.6650655,2783
1751083916.6792724,3013
1751083916.6794004,2989
1751083916.679507,2764
1751083916.6935995,2412
1751083916.7158453,2023
1751083916.7161415,1728
1751083916.7163,1609
1751083916.717238,1777
1751083916.719275,2219
1751083916.7194288,2719
1751083916.7198334,2990
1751083916.7203338,2979
1751083916.7306652,2761
1751083916.7404902,2428
1751083916.7406573,2059
1751083916.7407537,1765
1751083916.7721267,1611
1751083916.7723958,1704
1751083916.797713,2086
1751083916.7984712,2598
1751083916.7997854,2940
1751083916.8247473,2997
1751083916.8788168,2819
1751083916.9086518,2492
1751083916.908766,2107
1751083916.909736,1789
1751083916.910152,1610
1751083916.910479,1660
1751083916.910796,2004
1751083916.9111207,2513
1751083916.9114397,2894
1751083916.911763,2987
1751083916.9120855,2835
1751083916.912408,2524
1751083916.9127314,2151
1751083916.913053,1825
1751083916.9133995,1623
1751083916.913722,1614
1751083916.9140444,1893
1751083916.9143667,2377
1751083916.9146857,2800
1751083916.9476345,2952
1751083916.9588625,2848
1751083916.9812946,2558
1751083916.9814665,2182
1751083916.9815803,1828
1751083916.981692,1595
1751083916.9818056,1549
1751083916.981917,1796
1751083916.9820244,2278
1751083916.982145,2739
1751083916.993179,2929
1751083917.0020788,2846
1751083917.0025866,2575
1751083917.0030909,2223
1751083917.0036016,1876
1751083917.0068061,1624
1751083917.0082548,1521
1751083917.009217,1689
1751083917.0100815,2130
1751083917.046177,2630
1751083917.046258,2900
1751083917.0463383,2885
1751083917.0464182,2647
1751083917.0464983,2296
1751083917.0465796,1929
1751083917.0466774,1656
1751083917.0467577,1528
1751083917.0468602,1653
1751083917.0469422,2061
1751083917.0470238,2571
1751083917.0471048,2884
1751083917.047185,2909
1751083917.0472648,2707
1751083917.0473464,2379
1751083917.047428,2013
1751083917.0475094,1716
1751083917.047591,1546
1751083917.0476704,1612
1751083917.0477517,1980
1751083917.047832,2500
1751083917.047913,2854
1751083917.047994,2900
1751083917.0480802,2702
1751083917.048161,2374
1751083917.0482426,2020
1751083917.048324,1736
1751083917.0484042,1574
1751083917.048485,1529
1751083917.0485663,1743
1751083917.048647,2252
1751083917.0487273,2788
1751083917.048808,3005
1751083917.048889,2777
1751083917.0489566,2301
1751083917.0490248,1945
1751083917.0500698,1839
1751083917.0687132,1734
1751083917.1157146,1478
1751083917.140214,1475
1751083917.152456,2148
1751083917.1525433,3124
1751083917.1526237,3350
1751083917.1527033,2294
1751083917.1527817,697
1751083917.1528604,16
1751083917.1529388,837
1751083917.1617835,2195
1751083917.161982,2674
1751083917.162163,2125
1751083917.162339,1644
1751083917.1629143,2109
1751083917.1630595,3126
1751083917.1634948,3665
1751083917.1636195,3202
1751083917.163705,2216
1751083917.1637886,1498
1751083917.1638722,1359
1751083917.1639562,1548
1751083917.1640708,1888
1751083917.1641557,2377
1751083917.164234,2896
1751083917.1643128,3100
1751083917.1643903,2842
1751083917.1645174,2236
1751083917.1646016,1659
1751083917.1647284,1346
1751083917.1660542,1325
1751083917.1667662,1491
1751083917.1683998,1794
1751083917.169166,2190
1751083917.169339,2532
1751083917.1695383,2622
1751083917.16971,2466
1751083917.1698163,2183
1751083917.170024,1886
1751083917.2564905,1638
1751083917.256787,1496
1751083917.2570362,1450
1751083917.2572296,1540
1751083917.2573385,1819
1751083917.2577198,2194
1751083917.2578268,2443
1751083917.2597833,2476
1751083917.2601662,2338
1751083917.2604232,2088
1751083917.260722,1784
1751083917.2608843,1520
1751083917.2610006,1357
1751083917.261111,1368
1751083917.2612455,1640
1751083917.2613552,2087
1751083917.261465,2453
1751083917.261574,2572
1751083917.2616959,2468
1751083917.2618058,2205
1751083917.2619147,1867
1751083917.262024,1555
1751083917.2621465,1346
1751083917.2622569,1299
1751083917.2623708,1513
1751083917.2624795,1935
1751083917.2625997,2338
1751083917.262753,2515
1751083917.262863,2464
1751083917.2629845,2229
1751083917.2631009,1892
1751083917.26321,1554
1751083917.2633352,1321
1751083917.2634594,1252
1751083917.263569,1451
1751083917.2636788,1881
1751083917.2637882,2327
1751083917.263911,2548
1751083917.2640204,2521
1751083917.264131,2301
1751083917.2642403,1974
1751083917.2643867,1624
1751083917.2644958,1356
1751083917.2646046,1226
1751083917.2647252,1349
1751083917.2648396,1737
1751083917.2649503,2205
1751083917.2660244,2481
1751083917.2675686,2498
1751083917.270245,2306
1751083917.2704084,1997
1751083917.2705595,1651
1751083917.2744946,1375
1751083917.275081,1221
1751083917.276107,1294
1751083917.276335,1641
1751083917.2764404,2113
1751083917.276545,2428
1751083917.2766638,2480
1751083917.277751,2318
1751083917.2778635,2027
1751083917.277968,1684
1751083917.2780719,1390
1751083917.2781863,1204
1751083917.2782893,1223
1751083917.278393,1527
1751083917.2784965,2003
1751083917.279207,2366
1751083917.2793157,2460
1751083917.2794235,2322
1751083917.2795272,2037
1751083917.279631,1693
1751083917.2821333,1389
1751083917.2822409,1189
1751083917.2830935,1167
1751083917.2831748,1426
1751083917.2832422,1888
1751083917.2833276,2291
1751083917.2833996,2435
1751083917.2834709,2339
1751083917.283542,2076
1751083917.2836127,1739
1751083917.2836852,1419
1751083917.2837567,1193
1751083917.2838285,1126
1751083917.28429,1334
1751083917.2844043,1778
1751083917.2844782,2215
1751083917.284551,2404
1751083917.284623,2339
1751083917.2846937,2092
1751083917.2847888,1764
1751083917.2848601,1439
1751083917.2849321,1199
1751083917.2850044,1094
1751083917.2850745,1251
1751083917.2851353,1670
1751083917.3262403,2140
1751083917.3422992,2386
1751083917.342383,2363
1751083917.3424609,2137
1751083917.3425388,1818
1751083917.3426085,1490
1751083917.3426855,1242
1751083917.3427627,1112
1751083917.3428395,1214
1751083917.342917,1587
1751083917.342999,2065
1751083917.3430758,2361
1751083917.3431344,2385
1751083917.3432088,2190
1751083917.3728635,1877
1751083917.3737,1536
1751083917.3739173,1269
1751083917.374368,1121
1751083917.3753996,1192
1751083917.3756063,1542
1751083917.3831103,2036
1751083917.383192,2384
1751083917.383275,2462
1751083917.383349,2317
1751083917.3834226,2039
1751083917.3834946,1714
1751083917.3835673,1437
1751083917.3836393,1264
1751083917.3837118,1289
1751083917.3837843,1603
1751083917.3838575,2104
1751083917.3839295,2504
1751083917.384002,2629
1751083917.384074,2516
1751083917.3841465,2255
1751083917.3842196,1941
1751083917.3843024,1664
1751083917.3843746,1486
1751083917.3844464,1478
1751083917.384519,1750
1751083917.3845913,2239
1751083917.3846645,2678
1751083917.3847382,2851
1751083917.3848104,2770
1751083917.3848822,2516
1751083917.3849556,2191
1751083917.3850272,1884
1751083917.3850992,1670
1751083917.3851712,1606
1751083917.3852432,1812
1751083917.3853157,2260
1751083917.4450123,2714
1751083917.5055707,2921
1751083917.5158803,2865
1751083917.5159652,2620
1751083917.5160453,2289
1751083917.5161242,1956
1751083917.516202,1703
1751083917.5162792,1582
1751083917.5163572,1717
1751083917.5164351,2117
1751083917.516513,2582
1751083917.5166004,2830
1751083917.5166802,2805
1751083917.5167584,2572
1751083917.5168362,2238
1751083917.5304635,1888
1751083917.5394046,1616
1751083917.5395176,1463
1751083917.5430708,1543
1751083917.5442753,1896
1751083917.564624,2360
1751083917.5650399,2646
1751083917.5722404,2658
1751083917.5789404,2452
1751083917.585543,2127
1751083917.595945,1768
1751083917.5965626,1474
1751083917.5969467,1296
1751083917.6288698,1330
1751083917.667704,1644
1751083917.6753805,2110
1751083917.675495,2441
1751083917.6756003,2499
1751083917.6757042,2331
1751083917.6758075,2024
1751083917.6759114,1664
1751083917.6760144,1353
1751083917.6761177,1151
1751083917.676221,1136
1751083917.6763246,1399
1751083917.6764293,1850
1751083917.6765356,2222
1751083917.6766765,2334
1751083917.6767852,2211
1751083917.676893,1922
1751083917.677,1561
1751083917.6771069,1232
1751083917.6772141,1014
1751083917.6773376,970
1751083917.6804323,1196
1751083917.6810503,1632
1751083917.6867664,2034
1751083917.6869972,2191
1751083917.6870823,2106
1751083917.6871428,1845
1751083917.687211,1499
1751083917.687277,1161
1751083917.6873407,923
1751083917.687407,840
1751083917.6874695,1024
1751083917.6875339,1448
1751083917.6876004,1887
1751083917.6881015,2091
1751083917.694369,2035
1751083917.7073674,1791
1751083917.7075567,1458
1751083917.7081478,1120
1751083917.7085128,866
1751083917.708586,741
1751083917.708658,864
1751083917.7087357,1253
1751083917.708807,1722
1751083917.7088795,1987
1751083917.7089508,1980
1751083917.7090225,1763
1751083917.7090938,1442
1751083917.709165,1101
1751083917.7092364,835
1751083917.709308,687
1751083917.7098765,764
1751083917.7502801,1120
1751083917.7684815,1601
1751083917.7850323,1916
1751083917.7907367,1952
1751083917.790849,1768
1751083917.7909544,1464
1751083917.7911515,1128
1751083917.7918196,853
1751083917.8268323,685
1751083917.8270118,714
1751083917.8273172,1020
1751083917.8274858,1494
1751083917.8279614,1852
1751083917.8281546,1942
1751083917.828324,1802
1751083917.8285084,1516
1751083917.8286967,1176
1751083917.8501935,883
1751083917.859523,703
1751083917.8631046,706
1751083917.863227,984
1751083917.8633113,1454
1751083917.863387,1850
1751083917.863462,1987
1751083917.8636422,1890
1751083917.8637562,1631
1751083917.8638659,1298
1751083917.864489,983
1751083917.8646116,768
1751083917.8647175,716
1751083917.8648229,938
1751083917.8649275,1385
1751083917.8650327,1815
1751083917.865141,1994
1751083917.865253,1923
1751083917.8653588,1675
1751083917.8654695,1350
1751083917.8657818,1037
1751083917.8667755,820
1751083917.8668633,742
1751083917.8669446,915
1751083917.8670242,1330
1751083917.8670938,1784
1751083917.8671565,2017
1751083917.8672347,1993
1751083917.8673146,1771
1751083917.8673935,1451
1751083917.8674722,1118
1751083917.8675516,868
1751083917.8676302,746
1751083917.8677092,862
1751083917.8677871,1244
1751083917.867867,1719
1751083917.8679452,2004
1751083917.8680332,2022
1751083917.8681126,1830
1751083917.8681922,1525
1751083917.8682728,1192
1751083917.8683527,929
1751083917.868433,781
1751083917.8685117,852
1751083917.8685918,1198
1751083917.8686712,1681
1751083917.8687506,2013
1751083917.86883,2070
1751083917.8689086,1902
1751083917.8988109,1606
1751083917.952718,1267
1751083917.966983,984
1751083917.9670656,808
1751083917.9671266,825
1751083917.9671986,1123
1751083917.9672713,1600
1751083917.9673405,1978
1751083917.9674125,2087
1751083917.9674845,1960
1751083917.967557,1681
1751083917.9676287,1342
1751083917.9677007,1042
1751083917.9677722,844
1751083917.9678457,819
1751083917.967918,1070
1751083917.96799,1531
1751083917.968062,1946
1751083917.9681406,2109
1751083917.9682124,2028
1751083917.9682848,1774
1751083917.9683566,1439
1751083917.9684289,1123
1751083917.968689,908
1751083917.9687603,850
1751083917.9688323,1057
1751083917.9689038,1493
1751083917.9689755,1931
1751083917.9690473,2134
1751083917.969119,2089
1751083917.9691937,1854
1751083917.969266,1524
1751083917.969338,1190
1751083917.9694095,950
1751083917.969508,856
1751083917.9695792,1016
1751083917.9696512,1424
1751083917.9697235,1885
1751083917.9697948,2137
1751083917.9698665,2135
1751083917.969951,1931
1751083917.9700234,1615
1751083917.9700959,1272
1751083917.9701679,1009
1751083917.9702404,881
1751083917.9703124,991
1751083917.9703841,1366
1751083917.9704564,1841
1751083917.9705288,2139
1751083917.9705913,2177
1751083917.9706535,2005
1751083917.9707265,1709
1751083917.9707983,1369
1751083917.9708688,1094
1751083917.9709404,940
1751083917.971012,1003
1751083917.9710798,1342
1751083917.9711406,1823
1751083917.9712014,2165
1751083917.97126,2242
1751083917.9713302,2100
1751083917.9714017,1819
1751083917.971474,1481
1751083917.971546,1185
1751083917.971618,998
1751083917.97169,1005
1751083917.9717624,1296
1751083917.9718344,1771
1751083917.9719062,2157
1751083917.9719784,2278
1751083917.9720507,2168
1751083917.972123,1905
1751083917.9721951,1577
1751083917.9722679,1276
1751083917.9723399,1073
1751083917.9724123,1037
1751083917.9724844,1275
1751083917.972557,1729
1751083917.9726295,2149
1751083917.972702,2317
1751083917.972774,2237
1751083917.9728463,1984
1751083917.9729187,1653
1751083917.9729905,1337
1751083917.9730628,1119
1751083917.9731345,1053
1751083917.9732068,1248
1751083917.9842446,1678
1751083917.9935513,2126
1751083918.0009956,2344
1751083918.053925,2309
1751083918.107088,2084
1751083918.1071763,1761
1751083918.1072416,1424
1751083918.1073089,1170
1751083918.1073835,1056
1751083918.1074588,1198
1751083918.1075332,1601
1751083918.1076078,2076
1751083918.1080518,2348
1751083918.108145,2357
1751083918.1083014,2159
1751083918.1083765,1850
1751083918.1084518,1511
1751083918.1085966,1245
1751083918.1140873,1103
1751083918.1219049,1189
1751083918.1719687,1544
1751083918.1842756,2019
1751083918.1846795,2334
1751083918.1847572,2387
1751083918.1903474,2224
1751083918.1904447,1930
1751083918.1905243,1590
1751083918.1906042,1312
1751083918.190685,1152
1751083918.1907654,1197
1751083918.1908448,1518
1751083918.1909204,1995
1751083918.1909986,2351
1751083918.1910784,2441
1751083918.1911578,2302
1751083918.1912372,2016
1751083918.1913168,1673
1751083918.1913953,1375
1751083918.19153,1184
1751083918.1927578,1175
1751083918.1928322,1444
1751083918.192905,1911
1751083918.1929772,2313
1751083918.1930485,2456
1751083918.19312,2358
1751083918.1931918,2091
1751083918.1932714,1749
1751083918.1933436,1429
1751083918.1945944,1209
1751083918.194676,1154
1751083918.1947458,1375
1751083918.1948152,1822
1751083918.1948845,2252
1751083918.1949546,2437
1751083918.195025,2375
1751083918.1950886,2133
1751083918.1951487,1807
1751083918.195219,1482
1751083918.1952887,1245
1751083918.195358,1153
1751083918.1954272,1326
1751083918.1954968,1748
1751083918.1955664,2203
1751083918.1956358,2430
1751083918.1957052,2398
1751083918.1957746,2176
1751083918.1958447,1862
1751083918.1959143,1534
1751083918.195985,1284
1751083918.1960554,1159
1751083918.196125,1276
1751083918.1961944,1661
1751083918.1962638,2136
1751083918.1963384,2417
1751083918.1964083,2431
1751083918.1964781,2236
1751083918.1965485,1931
1751083918.1966345,1594
1751083918.1967056,1321
1751083918.1967754,1164
1751083918.1968448,1230
1751083918.1969144,1578
1751083918.1969843,2063
1751083918.197082,2394
1751083918.1971543,2450
1751083918.197227,2285
1751083918.1972973,1990
1751083918.1973689,1648
1751083918.1979995,1358
1751083918.2090092,1176
1751083918.2344594,1195
1751083918.2346075,1499
1751083918.234741,1975
1751083918.2348728,2340
1751083918.2350042,2436
1751083918.2351344,2307
1751083918.2352655,2035
1751083918.2353964,1703
1751083918.2355273,1399
1751083918.2356641,1192
1751083918.2357945,1164
1751083918.2359254,1423
1751083918.236057,1888
1751083918.2362099,2290
1751083918.2363398,2422
1751083918.2364688,2311
1751083918.2366297,2046
1751083918.2367616,1723
1751083918.236892,1420
1751083918.2370377,1202
1751083918.2371678,1126
1751083918.237298,1319
1751083918.237442,1760
1751083918.2375743,2217
1751083918.2390563,2433
1751083918.2394748,2378
1751083918.239621,2119
1751083918.2397716,1773
1751083918.239902,1442
1751083918.2401378,1218
1751083918.240247,1136
1751083918.2403789,1300
1751083918.2404869,1711
1751083918.240595,2176
1751083918.2450135,2432
1751083918.2451255,2427
1751083918.2452333,2215
1751083918.2453418,1894
1751083918.2454665,1550
1751083918.2455754,1284
1751083918.2456834,1144
1751083918.245791,1242
1751083918.2459111,1612
1751083918.2460184,2089
1751083918.2461262,2384
1751083918.246233,2409
1751083918.24638,2220
1751083918.2464843,1916
1751083918.2466564,1578
1751083918.2467604,1300
1751083918.246863,1129
1751083918.2469654,1174
1751083918.2471225,1509
1751083918.247226,2003
1751083918.24733,2359
1751083918.2474577,2433
1751083918.2476048,2273
1751083918.2485347,1977
1751083918.2486446,1639
1751083918.24875,1352
1751083918.2530751,1167
1751083918.2532191,1167
1751083918.2533484,1452
1751083918.253454,1932
1751083918.2535574,2327
1751083918.2537482,2452
1751083918.2538545,2332
1751083918.2539577,2054
1751083918.2540612,1717
1751083918.2541656,1415
1751083918.2542686,1211
1751083918.2543724,1174
1751083918.2544768,1416
1751083918.2546864,1880
1751083918.254791,2312
1751083918.2548952,2486
1751083918.2549987,2406
1751083918.2551877,2147
1751083918.2553031,1810
1751083918.2554073,1491
1751083918.2555122,1271
1751083918.2556157,1203
1751083918.2557194,1398
1751083918.255823,1829
1751083918.2654688,2276
1751083918.2662003,2490
1751083918.2880147,2449
1751083918.326004,2217
1751083918.3595595,1889
1751083918.359731,1555
1751083918.3640256,1310
1751083918.3641047,1203
1751083918.3641775,1348
1751083918.3642492,1749
1751083918.364321,2214
1751083918.364393,2476
1751083918.364465,2476
1751083918.3645363,2273
1751083918.3646078,1960
1751083918.3646789,1618
1751083918.3647506,1350
1751083918.3648264,1207
1751083918.3648968,1299
1751083918.3649697,1668
1751083918.365039,2155
1751083918.3651087,2472
1751083918.3651788,2515
1751083918.3652487,2334
1751083918.3653178,2026
1751083918.3653932,1680
1751083918.3654635,1399
1751083918.3655336,1233
1751083918.3656034,1275
1751083918.3656735,1593
1751083918.365743,2071
1751083918.3658206,2428
1751083918.3658953,2520
1751083918.3659692,2379
1751083918.3660436,2088
1751083918.3661175,1738
1751083918.3661914,1437
1751083918.3662655,1248
1751083918.3663394,1246
1751083918.3664134,1519
1751083918.366488,1981
1751083918.366563,2370
1751083918.36665,2504
1751083918.366725,2405
1751083918.3667989,2141
1751083918.3668728,1801
1751083918.3669465,1483
1751083918.3670201,1266
1751083918.367095,1220
1751083918.3671696,1451
1751083918.3672435,1904
1751083918.3673174,2335
1751083918.3673992,2515
1751083918.367473,2444
1751083918.3675468,2190
1751083918.36762,1852
1751083918.3676941,1524
1751083918.3677678,1291
1751083918.3678415,1207
1751083918.3679156,1386
1751083918.3679895,1810
1751083918.368064,2266
1751083918.3681374,2497
1751083918.3682113,2469
1751083918.3682916,2244
1751083918.43373,1919
1751083918.4686995,1582
1751083918.4687936,1327
1751083918.480575,1203
1751083918.4811125,1326
1751083918.4814918,1714
1751083918.4818642,2188
1751083918.482236,2468
1751083918.4825804,2479
1751083918.4829512,2277
1751083918.4833326,1961
1751083918.4837048,1618
1751083918.4840748,1351
1751083918.4844463,1204
1751083918.4848166,1280
1751083918.4851878,1628
1751083918.4855585,2108
1751083918.485937,2436
1751083918.4863114,2496
1751083918.5048609,2330
1751083918.5158365,2027
1751083918.5403273,1676
1751083918.5517988,1385
1751083918.5536487,1212
1751083918.5537539,1243
1751083918.5538387,1551
1751083918.5539188,2026
1751083918.5539987,2389
1751083918.5540826,2489
1751083918.5541654,2360
1751083918.5542412,2082
1751083918.5543349,1741
1751083918.5544171,1434
1751083918.5544896,1227
1751083918.5545616,1203
1751083918.554639,1465
1751083918.5547152,1937
1751083918.554805,2349
1751083918.5548964,2493
1751083918.5549798,2390
1751083918.555056,2123
1751083918.5551264,1790
1751083918.5551975,1480
1751083918.555268,1265
1751083918.5553398,1206
1751083918.555409,1423
1751083918.5554795,1878
1751083918.5555465,2327
1751083918.5556152,2522
1751083918.555684,2456
1751083918.5557544,2205
1751083918.5558243,1875
1751083918.555893,1550
1751083918.5559618,1310
1751083918.556031,1202
1751083918.5561097,1351
1751083918.5561779,1763
1751083918.556247,2233
1751083918.556315,2487
1751083918.5563848,2473
1751083918.556455,2251
1751083918.5565248,1924
1751083918.556607,1583
1751083918.5566802,1325
1751083918.5567513,1196
1751083918.5568228,1307
1751083918.556892,1688
1751083918.556961,2168
1751083918.557031,2461
1751083918.5571017,2481
1751083918.5571723,2286
1751083918.5572429,1975
1751083918.5573127,1632
1751083918.5573819,1357
1751083918.5574512,1197
1751083918.5575209,1254
1751083918.5575907,1590
1751083918.557662,2070
1751083918.5577319,2407
1751083918.557803,2473
1751083918.5578725,2316
1751083918.5579424,2023
1751083918.5580122,1682
1751083918.558082,1389
1751083918.5581524,1203
1751083918.5582204,1211
1751083918.5582907,1505
1751083918.55836,1982
1751083918.5584297,2362
1751083918.558492,2470
1751083918.558557,2339
1751083918.558628,2057
1751083918.5586965,1718
1751083918.55877,1415
1751083918.5588388,1212
1751083918.5589092,1178
1751083918.5589783,1424
1751083918.55905,1887
1751083918.559118,2310
1751083918.5591872,2471
1751083918.559263,2381
1751083918.5599852,2117
1751083918.6198008,1779
1751083918.6218834,1459
1751083918.622257,1233
1751083918.6227343,1159
1751083918.623214,1355
1751083918.6237812,1794
1751083918.6775475,2244
1751083918.6985269,2452
1751083918.6986148,2399
1751083918.6986997,2157
1751083918.6987846,1828
1751083918.6988761,1497
1751083918.6989622,1251
1751083918.6990325,1140
1751083918.6991131,1284
1751083918.6992073,1689
1751083918.699298,2157
1751083918.7268815,2417
1751083918.7779005,2414
1751083918.812946,2206
1751083918.8130689,1888
1751083918.813665,1545
1751083918.813864,1282
1751083918.8160052,1148
1751083918.8161197,1245
1751083918.816225,1603
1751083918.817715,2062
1751083918.8180356,2354
1751083918.8190725,2395
1751083918.819415,2231
1751083918.8196752,1939
1751083918.819939,1595
1751083918.8202047,1309
1751083918.8204627,1150
1751083918.8207152,1216
1751083918.8361626,1562
1751083918.836277,2050
1751083918.8446407,2397
1751083918.8788733,2473
1751083918.8789637,2322
1751083918.8790448,2030
1751083918.8791535,1681
1751083918.8792498,1380
1751083918.8793297,1189
1751083918.879409,1188
1751083918.8794875,1466
1751083918.879567,1933
1751083918.881518,2320
1751083918.8816032,2449
1751083918.881685,2343
1751083918.8817654,2075
1751083918.8819306,1735
1751083918.8820133,1418
1751083918.8820934,1198
1751083918.8821728,1145
1751083918.882292,1370
1751083918.8823736,1819
1751083918.8824546,2241
1751083918.8825464,2413
1751083918.8826258,2337
1751083918.8848388,2082
1751083918.8849204,1749
1751083918.8849993,1426
1751083918.8850777,1197
1751083918.8851554,1117
1751083918.8852863,1300
1751083918.8853648,1725
1751083918.8854437,2174
1751083918.8855212,2394
1751083918.885599,2358
1751083918.8856769,2129
1751083918.8857548,1805
1751083918.8858325,1470
1751083918.8859093,1219
1751083918.8859866,1099
1751083918.886064,1227
1751083918.8861415,1617
1751083918.8862185,2089
1751083918.8862958,2364
1751083918.886373,2375
1751083918.8864517,2178
1751083918.8865287,1868
1751083918.8866231,1531
1751083918.886704,1267
1751083918.886782,1122
1751083918.8868594,1201
1751083918.8869374,1556
1751083918.8870142,2039
1751083918.8870919,2357
1751083918.8871694,2399
1751083918.8872466,2219
1751083918.8873253,1920
1751083918.887403,1591
1751083918.8874798,1321
1751083918.8875568,1150
1751083918.887634,1171
1751083918.887711,1479
1751083918.887788,1973
1751083918.8878655,2355
1751083918.887943,2451
1751083918.88802,2297
1751083918.8880973,1999
1751083918.8881748,1665
1751083918.8882532,1381
1751083918.888332,1186
1751083918.8884149,1153
1751083918.9367719,1406
1751083918.9377131,1886
1751083918.9377828,2314
1751083918.9378512,2462
1751083918.9384384,2344
1751083918.9384987,2060
1751083918.9385567,1727
1751083918.9386153,1432
1751083918.9386737,1226
1751083918.9387317,1165
1751083918.9397473,1370
1751083918.9398193,1806
1751083918.9398892,2239
1751083918.939977,2433
1751083918.9400465,2374
1751083918.9401143,2121
1751083918.9401836,1773
1751083918.94025,1431
1751083918.9403195,1201
1751083918.940386,1128
1751083918.940452,1297
1751083918.9405208,1682
1751083918.9405885,2130
1751083918.9406607,2472
1751083918.9407296,2681
1751083918.9407978,2699
1751083918.9408634,2459
1751083918.9409308,1972
1751083918.9409997,1420
1751083918.9410672,1008
1751083918.941135,943
1751083918.941203,1237
1751083918.94127,1667
1751083918.9413373,1947
1751083918.941404,2025
1751083918.941473,1969
1751083918.9415395,1841
1751083918.9416068,1657
1751083918.941674,1457
1751083918.94174,1265
1751083918.9418068,1208
1751083918.941873,1393
1751083918.9419413,1743
1751083918.9420104,2020
1751083918.9420762,2116
1751083918.942144,2059
1751083918.94221,1899
1751083918.942277,1669
1751083918.942344,1425
1751083918.942411,1201
1751083918.942474,1118
1751083918.9425359,1320
1751083918.942595,1749
1751083918.9426541,2135
1751083918.9427133,2295
1751083918.942773,2237
1751083918.9428415,2022
1751083918.942907,1722
1751083918.9429734,1419
1751083918.9430327,1171
1751083918.9430938,1076
1751083918.9431534,1280
1751083918.9432125,1744
1751083918.9432783,2197
1751083918.9433377,2407
1751083918.9434025,2363
1751083918.9434614,2130
1751083918.9435205,1807
1751083918.9435794,1482
1751083918.9436462,1229
1751083918.9437153,1119
1751083918.9437864,1294
1751083918.9438515,1743
1751083918.9439194,2225
1751083918.9439855,2474
1751083918.9440508,2457
1751083918.944119,2236
1751083918.944184,1916
1751083918.9442487,1584
1751083918.9443133,1325
1751083918.9443786,1194
1751083918.9444416,1328
1751083918.9941216,1748
1751083918.9993355,2249
1751083919.0065658,2539
1751083919.0068102,2553
1751083919.0069544,2351
1751083919.0070813,2039
1751083919.00827,1700
1751083919.0084212,1423
1751083919.00859,1254
1751083919.00873,1330
1751083919.008869,1710
1751083919.0090308,2230
1751083919.0091693,2579
1751083919.009307,2643
1751083919.0099094,2471
1751083919.0100367,2169
1751083919.010127,1825
1751083919.0102153,1533
1751083919.010302,1338
1751083919.010392,1360
1751083919.0104742,1691
1751083919.0105512,2205
1751083919.010638,2595
1751083919.0107243,2702
1751083919.0108097,2561
1751083919.0108938,2269
1751083919.0109782,1920
1751083919.011053,1612
1751083919.0111432,1398
1751083919.0112338,1378
1751083919.011321,1663
1751083919.0114074,2166
1751083919.0114944,2590
1751083919.0115817,2740
1751083919.011679,2641
1751083919.011766,2378
1751083919.0118515,2045
1751083919.0119367,1727
1751083919.012024,1482
1751083919.0121155,1400
1751083919.0122151,1622
1751083919.0123036,2101
1751083919.0123916,2560
1751083919.012484,2750
1751083919.012569,2668
1751083919.0126548,2407
1751083919.0127401,2078
1751083919.0128262,1760
1751083919.012911,1512
1751083919.012997,1396
1751083919.0130827,1560
1751083919.0131688,2007
1751083919.0132537,2498
1751083919.013359,2751
1751083919.0134482,2724
1751083919.0135355,2491
1751083919.013621,2166
1751083919.0137064,1831
1751083919.0278354,1563
1751083919.027995,1415
1751083919.0280716,1531
1751083919.0281544,1946
1751083919.028225,2458
1751083919.0282948,2759
1751083919.0283618,2772
1751083919.028431,2560
1751083919.0284991,2239
1751083919.0285687,1895
1751083919.0286436,1611
1751083919.034949,1434
1751083919.035018,1493
1751083919.035082,1858
1751083919.035151,2370
1751083919.0352185,2717
1751083919.0352876,2776
1751083919.0353537,2600
1751083919.0354211,2295
1751083919.035489,1945
1751083919.0355554,1638
1751083919.0356247,1424
1751083919.0356917,1429
1751083919.03576,1758
1751083919.0358298,2288
1751083919.0358968,2692
1751083919.0359633,2790
1751083919.0360293,2625
1751083919.036097,2315
1751083919.036164,1966
1751083919.0362318,1658
1751083919.036298,1430
1751083919.0363677,1377
1751083919.036435,1639
1751083919.0365005,2151
1751083919.0365686,2610
1751083919.0428424,2777
1751083919.042915,2663
1751083919.0429814,2371
1751083919.043041,2020
1751083919.0431085,1697
1751083919.043179,1450
1751083919.0432496,1352
1751083919.043326,1556
1751083919.0482955,2038
1751083919.048405,2525
1751083919.0485103,2739
1751083919.0496423,2662
1751083919.0497575,2390
1751083919.049865,2049
1751083919.0499864,1721
1751083919.1003609,1461
1751083919.121852,1322
1751083919.1219683,1468
1751083919.1220748,1919
1751083919.1221848,2440
1751083919.1222904,2714
1751083919.149299,2680
1751083919.159007,2425
1751083919.1600976,2087
1751083919.1615417,1751
1751083919.1702375,1483
1751083919.1703339,1322
1751083919.1704206,1421
1751083919.1704996,1839
1751083919.1705823,2377
1751083919.1706736,2700
1751083919.1707594,2706
1751083919.170846,2476
1751083919.1709309,2150
1751083919.1710117,1814
1751083919.171095,1532
1751083919.1711812,1331
1751083919.171267,1350
1751083919.1713521,1695
1751083919.1714373,2224
1751083919.171521,2605
1751083919.1716053,2679
1751083919.1716905,2501
1751083919.1717753,2189
1751083919.1718607,1842
1751083919.171946,1545
1751083919.172034,1338
1751083919.1721191,1336
1751083919.172204,1657
1751083919.1722887,2187
1751083919.1723738,2602
1751083919.1724591,2706
1751083919.1725452,2542
1751083919.1726305,2230
1751083919.1727154,1881
1751083919.1728005,1577
1751083919.1728864,1356
1751083919.1729748,1294
1751083919.1730604,1527
1751083919.173146,2004
1751083919.1732316,2449
1751083919.173344,2632
1751083919.173432,2549
1751083919.1735172,2279
1751083919.1736028,1924
1751083919.1736865,1584
1751083919.1737719,1340
1751083919.1738567,1268
1751083919.173942,1500
1751083919.1740272,1990
1751083919.1741126,2471
1751083919.1741972,2677
1751083919.1742814,2605
1751083919.174374,2344
1751083919.1744576,2002
1751083919.1745327,1657
1751083919.1746204,1387
1751083919.1747043,1262
1751083919.1747887,1426
1751083919.175621,1877
1751083919.1758802,2374
1751083919.176087,2614
1751083919.176233,2556
1751083919.176436,2297
1751083919.1937535,1962
1751083919.2384377,1627
1751083919.2385173,1367
1751083919.2387826,1225
1751083919.2388513,1338
1751083919.23892,1757
1751083919.2389863,2296
1751083919.2391355,2637
1751083919.2769573,2671
1751083919.31243,2457
1751083919.312538,2108
1751083919.3126073,1724
1751083919.3126736,1412
1751083919.3127415,1228
1751083919.3128078,1288
1751083919.3128726,1663
1751083919.3129392,2203
1751083919.3130052,2589
1751083919.3130834,2669
1751083919.3131483,2488
1751083919.3160198,2155
1751083919.3160899,1778
1751083919.3161545,1461
1751083919.3162208,1258
1751083919.3162858,1261
1751083919.3163514,1568
1751083919.3164175,2079
1751083919.3164828,2498
1751083919.316548,2633
1751083919.3166375,2507
1751083919.316705,2213
1751083919.3167715,1855
1751083919.3168368,1530
1751083919.3169017,1301
1751083919.3169687,1246
1751083919.317033,1489
1751083919.3170984,1977
1751083919.3171632,2436
1751083919.3172283,2627
1751083919.317385,2544
1751083919.3174589,2268
1751083919.317525,1911
1751083919.3175905,1573
1751083919.3176558,1331
1751083919.317723,1242
1751083919.3177886,1437
1751083919.3178544,1895
1751083919.3179193,2377
1751083919.3179858,2609
1751083919.318053,2561
1751083919.3181198,2309
1751083919.3181853,1968
1751083919.3182516,1629
1751083919.3183188,1369
1751083919.3183882,1231
1751083919.3184514,1352
1751083919.3185096,1762
1751083919.3186717,2265
1751083919.3187377,2561
1751083919.3188043,2572
1751083919.3188682,2356
1751083919.3189366,2026
1751083919.3189964,1676
1751083919.3191464,1400
1751083919.3192155,1240
1751083919.3192847,1322
1751083919.3193505,1705
1751083919.3194203,2221
1751083919.3194885,2560
1751083919.319555,2606
1751083919.3196206,2416
1751083919.3196864,2100
1751083919.3197517,1746
1751083919.319818,1447
1751083919.3198845,1248
1751083919.3410392,1264
1751083919.341555,1589
1751083919.3420463,2098
1751083919.3426888,2482
1751083919.3501816,2576
1751083919.3521798,2422
1751083919.3569028,2122
1751083919.3671892,1772
1751083919.3672702,1466
1751083919.3673394,1254
1751083919.3674245,1227
1751083919.3676407,1503
1751083919.3677182,2003
1751083919.3677936,2438
1751083919.3678684,2596
1751083919.367946,2490
1751083919.3680217,2202
1751083919.3680983,1841
1751083919.3681736,1509
1751083919.368249,1275
1751083919.3683238,1207
1751083919.3683982,1431
1751083919.3684728,1900
1751083919.3685477,2360
1751083919.368622,2565
1751083919.368697,2506
1751083919.3687716,2252
1751083919.368846,1905
1751083919.3689208,1559
1751083919.3689957,1300
1751083919.3690708,1188
1751083919.3691454,1357
1751083919.3692195,1799
1751083919.3692942,2284
1751083919.3693688,2536
1751083919.3694468,2516
1751083919.3695211,2287
1751083919.369596,1955
1751083919.3696706,1605
1751083919.3697455,1328
1751083919.3698199,1178
1751083919.3698945,1289
1751083919.369987,1692
1751083919.3700705,2196
1751083919.3701456,2500
1751083919.3702207,2523
1751083919.3702955,2325
1751083919.3703704,2012
1751083919.370445,1666
1751083919.3705206,1379
1751083919.370581,1201
1751083919.3706458,1259
1751083919.3717139,1621
1751083919.3718054,2134
1751083919.371879,2485
1751083919.397906,2545
1751083919.3979905,2366
1751083919.3980634,2055
1751083919.3981357,1705
1751083919.3982067,1405
1751083919.398278,1201
1751083919.3983493,1199
1751083919.3984206,1505
1751083919.3984926,2014
1751083919.3986924,2421
1751083919.398765,2545
1751083919.3988361,2411
1751083919.3989074,2116
1751083919.3989792,1762
1751083919.4019814,1448
1751083919.43528,1229
1751083919.4353716,1187
1751083919.4354553,1441
1751083919.4355385,1927
1751083919.435619,2365
1751083919.4357536,2534
1751083919.4358373,2441
1751083919.4359205,2169
1751083919.4360027,1822
1751083919.4360821,1495
1751083919.4361548,1256
1751083919.4362307,1171
1751083919.4363058,1375
1751083919.4363801,1837
1751083919.4364555,2308
1751083919.4365304,2528
1751083919.4366229,2478
1751083919.4366987,2233
1751083919.4367735,1897
1751083919.4368496,1556
1751083919.4369335,1290
1751083919.4370034,1159
1751083919.437077,1306
1751083919.4371517,1739
1751083919.4372268,2235
1751083919.4373012,2505
1751083919.437376,2497
1751083919.4374511,2282
1751083919.4375234,1969
1751083919.4375987,1632
1751083919.4376748,1352
1751083919.43775,1178
1751083919.4378247,1255
1751083919.4379003,1640
1751083919.4379754,2154
1751083919.43805,2480
1751083919.4381251,2514
1751083919.4381998,2313
1751083919.4382744,1994
1751083919.4385526,1649
1751083919.4386196,1371
1751083919.438693,1194
1751083919.4387655,1233
1751083919.4388387,1571
1751083919.4389215,2079
1751083919.438995,2454
1751083919.4390612,2550
1751083919.4391263,2401
1751083919.4391994,2102
1751083919.4392734,1747
1751083919.4393485,1439
1751083919.439423,1234
1751083919.4394963,1228
1751083919.4395697,1523
1751083919.439642,2019
1751083919.4397151,2424
1751083919.4397888,2554
1751083919.4398623,2435
1751083919.439946,2149
1751083919.440065,1792
1751083919.4401393,1464
1751083919.4402134,1234
1751083919.4402869,1185
1751083919.440361,1437
1751083919.440435,1922
1751083919.4405086,2368
1751083919.4405818,2549
1751083919.4406555,2472
1751083919.440731,2213
1751083919.4408052,1868
1751083919.4408855,1529
1751083919.440959,1274
1751083919.4410322,1175
1751083919.4411056,1370
1751083919.441179,1832
1751083919.441253,2312
1751083919.4413269,2544
1751083919.4414003,2501
1751083919.4414742,2259
1751083919.441548,1922
1751083919.4416215,1577
1751083919.441695,1311
1751083919.4417684,1180
1751083919.4418418,1321
1751083919.4419153,1750
1751083919.441989,2255
1751083919.4420626,2542
1751083919.4421358,2545
1751083919.4422092,2330
1751083919.442281,2004
1751083919.4423516,1653
1751083919.4424224,1368
1751083919.442493,1199
1751083919.4425545,1278
1751083919.4426215,1660
1751083919.4426918,2175
1751083919.4427638,2515
1751083919.442837,2567
1751083919.442908,2383
1751083919.4429793,2068
1751083919.4430478,1713
1751083919.443109,1415
1751083919.4431732,1227
1751083919.4432445,1259
1751083919.443364,1599
1751083919.443437,2114
1751083919.443508,2497
1751083919.4435785,2593
