1749980906.0305955,2036
1749980906.0768895,2462
1749980906.078348,2635
1749980906.0791302,2533
1749980906.079949,2246
1749980906.0807202,1901
1749980906.0813792,1599
1749980906.0821583,1369
1749980906.0826848,1287
1749980906.0832655,1485
1749980906.0839522,1931
1749980906.0844772,2376
1749980906.0850823,2596
1749980906.0859156,2547
1749980906.0870397,2289
1749980906.0876071,1943
1749980906.088319,1619
1749980906.0890393,1374
1749980906.0896704,1266
1749980906.0903885,1429
1749980906.0909984,1854
1749980906.0918398,2323
1749980906.092484,2590
1749980906.093193,2594
1749980906.0939856,2366
1749980906.094767,2022
1749980906.0954204,1678
1749980906.0960758,1416
1749980906.0969796,1279
1749980906.0981236,1386
1749980906.0988717,1746
1749980906.0996242,2186
1749980906.100369,2471
1749980906.1010585,2528
1749980906.1017642,2355
1749980906.1024785,2033
1749980906.103105,1671
1749980906.1038363,1385
1749980906.1045382,1233
1749980906.1052773,1325
1749980906.1059728,1676
1749980906.1067202,2130
1749980906.107463,2446
1749980906.1085382,2537
1749980906.1092985,2397
1749980906.1099472,2095
1749980906.1106393,1731
1749980906.111403,1429
1749980906.1122084,1244
1749980906.1131022,1282
1749980906.114009,1589
1749980906.1147752,2045
1749980906.1155624,2403
1749980906.1163836,2541
1749980906.117145,2439
1749980906.1179554,2155
1749980906.1192565,1790
1749980906.1200724,1474
1749980906.1208215,1268
1749980906.1217413,1260
1749980906.1224864,1525
1749980906.1232116,1974
1749980906.1239684,2366
1749980906.1247451,2547
1749980906.1256108,2487
1749980906.1263518,2226
1749980906.1271968,1864
1749980906.1279905,1530
1749980906.1287384,1297
1749980906.1298501,1240
1749980906.13065,1453
1749980906.131405,1880
1749980906.132151,2300
1749980906.1329434,2524
1749980906.133786,2511
1749980906.134544,2280
1749980906.1352534,1926
1749980906.1360297,1577
1749980906.1367812,1326
1749980906.1376474,1236
1749980906.1384776,1410
1749980906.1393201,1817
1749980906.1406302,2256
1749980906.141462,2518
1749980906.142211,2547
1749980906.1429152,2351
1749980906.1436746,2015
1749980906.1444683,1658
1749980906.1453362,1387
1749980906.1463773,1258
1749980906.1472285,1382
1749980906.148107,1755
1749980906.1489508,2205
1749980906.149884,2499
1749980906.1514044,2566
1749980906.1524312,2403
1749980906.1532845,2087
1749980906.1541564,1725
1749980906.1549869,1436
1749980906.1556685,1272
1749980906.1564598,1347
1749980906.15713,1687
1749980906.1581013,2147
1749980906.159174,2480
1749980906.1600566,2585
1749980906.1607828,2453
1749980906.1628036,2153
1749980906.1635635,1789
1749980906.1643481,1486
1749980906.1651092,1299
1749980906.1660452,1330
1749980906.1667917,1631
1749980906.1674788,2088
1749980906.16824,2455
1749980906.16889,2606
1749980906.1695762,2519
1749980906.1701934,2246
1749980906.1704478,1883
1749980906.1705477,1556
1749980906.170709,1337
1749980906.17085,1320
1749980906.1710374,1585
1749980906.1712236,2043
1749980906.171404,2448
1749980906.1715899,2640
1749980906.171801,2592
1749980906.171994,2347
1749980906.1721816,1998
1749980906.1723874,1669
1749980906.172579,1435
1749980906.1727717,1374
1749980906.1735342,1585
1749980906.1737134,2014
1749980906.1738603,2438
1749980906.17404,2669
1749980906.1742187,2667
1749980906.1743982,2448
1749980906.1745775,2101
1749980906.1747563,1751
1749980906.174936,1495
1749980906.1750996,1402
1749980906.175279,1576
1749980906.1754577,1985
1749980906.1756368,2432
1749980906.1758153,2706
1749980906.1760015,2756
1749980906.176187,2581
1749980906.1763659,2260
1749980906.1765444,1908
1749980906.1767228,1640
1749980906.1769078,1514
1749980906.177108,1640
1749980906.177252,2012
1749980906.1773934,2461
1749980906.1775763,2759
1749980906.1777735,2837
1749980906.1779504,2686
1749980906.1781337,2376
1749980906.1783147,2010
1749980906.1784985,1711
1749980906.178675,1540
1749980906.1788516,1611
1749980906.1790354,1953
1749980906.1792183,2421
1749980906.1793947,2759
1749980906.1795714,2865
1749980906.1797485,2732
1749980906.179925,2435
1749980906.1801019,2074
1749980906.1802857,1762
1749980906.1804628,1551
1749980906.1806467,1556
1749980906.1808236,1853
1749980906.1810005,2331
1749980906.1812105,2715
1749980906.1813145,2854
1749980906.181531,2739
1749980906.1817584,2454
1749980906.181981,2104
1749980906.18226,1788
1749980906.1826112,1544
1749980906.1829517,1475
1749980906.183388,1707
1749980906.1850057,2177
1749980906.185527,2611
1749980906.1860602,2801
1749980906.1863897,2720
1749980906.186811,2449
1749980906.1872087,2107
1749980906.1875474,1789
1749980906.1879852,1529
1749980906.188503,1412
1749980906.18895,1597
1749980906.1899266,2061
1749980906.1904783,2540
1749980906.1909006,2774
1749980906.191644,2722
1749980906.1920564,2466
1749980906.1924844,2138
1749980906.1929288,1824
1749980906.1934025,1548
1749980906.193568,1369
1749980906.1940067,1473
1749980906.1942449,1894
1749980906.1946032,2403
1749980906.1948225,2695
1749980906.196362,2685
1749980906.1965039,2439
1749980906.1969068,2111
1749980906.1977108,1802
1749980906.1981242,1543
1749980906.198255,1347
1749980906.1984208,1375
1749980906.1985528,1704
1749980906.1986897,2179
1749980906.199012,2506
1749980906.1991425,2564
1749980906.1992722,2370
1749980906.1994243,2049
1749980906.199562,1716
1749980906.199693,1444
1749980906.1998305,1254
1749980906.1999674,1279
1749980906.200099,1600
1749980906.200252,2089
1749980906.2003882,2452
1749980906.200524,2548
1749980906.2016468,2382
1749980906.2018478,2071
1749980906.2019815,1731
1749980906.2021189,1451
1749980906.202251,1247
1749980906.2023957,1228
1749980906.2025259,1498
1749980906.2026627,1970
1749980906.2027922,2365
1749980906.202928,2510
1749980906.2030647,2392
1749980906.2032104,2102
1749980906.2033465,1756
1749980906.2034853,1456
1749980906.2036145,1229
1749980906.2037506,1166
1749980906.2038968,1393
1749980906.2040286,1855
1749980906.2041664,2290
1749980906.2043047,2489
1749980906.2044432,2421
1749980906.20458,2155
1749980906.2047706,1814
1749980906.2049165,1498
1749980906.2050924,1252
1749980906.2052495,1147
1749980906.2053797,1326
1749980906.20551,1769
1749980906.2056704,2233
1749980906.2060628,2474
1749980906.2065542,2442
1749980906.2080684,2199
1749980906.208514,1868
1749980906.2088194,1547
1749980906.2093356,1286
1749980906.209791,1136
1749980906.2100468,1256
1749980906.2104235,1669
1749980906.2108836,2163
1749980906.2112951,2457
1749980906.2116206,2471
1749980906.211965,2250
1749980906.212584,1927
1749980906.2128792,1605
1749980906.2132354,1341
1749980906.2137375,1162
1749980906.214077,1221
1749980906.2144413,1581
1749980906.2147584,2080
1749980906.215184,2422
1749980906.2154443,2490
1749980906.2157638,2302
1749980906.216204,1986
1749980906.2165816,1656
1749980906.216922,1387
1749980906.2172027,1197
1749980906.2174935,1215
1749980906.2178833,1528
1749980906.2186985,2015
1749980906.2191007,2388
1749980906.2193484,2501
1749980906.2196167,2356
1749980906.2201118,2058
1749980906.220594,1720
1749980906.2212994,1434
1749980906.2217767,1223
1749980906.2221348,1198
1749980906.2224782,1471
1749980906.2229826,1953
1749980906.22319,2363
1749980906.2235525,2519
1749980906.2238202,2412
1749980906.224019,2134
1749980906.2242558,1800
1749980906.2246947,1505
1749980906.2248182,1275
1749980906.2249484,1201
1749980906.225089,1419
1749980906.2252092,1884
1749980906.225333,2331
1749980906.2254522,2539
1749980906.2255774,2475
1749980906.2257383,2215
1749980906.225864,1883
1749980906.2259903,1578
1749980906.22611,1339
1749980906.226239,1229
1749980906.228066,1392
1749980906.229933,1817
1749980906.2308314,2276
1749980906.2312481,2521
1749980906.233474,2501
1749980906.2337432,2264
1749980906.2342763,1933
1749980906.2344031,1611
1749980906.2345285,1357
1749980906.234655,1216
1749980906.234778,1330
1749980906.2348967,1718
1749980906.2350476,2188
1749980906.2351735,2477
1749980906.2353065,2507
1749980906.2354283,2302
1749980906.2355611,1976
1749980906.2356935,1638
1749980906.235822,1374
1749980906.2359555,1219
1749980906.2360818,1303
1749980906.2362602,1662
1749980906.2363808,2138
1749980906.2365074,2461
1749980906.2367568,2534
1749980906.2368906,2368
1749980906.237023,2061
1749980906.237146,1717
1749980906.2372773,1430
1749980906.237585,1235
1749980906.238257,1257
1749980906.2388518,1572
1749980906.2394006,2055
1749980906.2401931,2430
1749980906.2409585,2553
1749980906.241547,2420
1749980906.2427595,2124
1749980906.2430973,1777
1749980906.243293,1481
1749980906.2435715,1270
1749980906.244094,1248
1749980906.2443168,1514
1749980906.244455,1986
1749980906.2447484,2390
1749980906.2448845,2549
1749980906.2450576,2447
1749980906.2452123,2165
1749980906.2453501,1819
1749980906.2455196,1516
1749980906.2456503,1292
1749980906.2457812,1229
1749980906.2459106,1446
1749980906.246675,1895
1749980906.246806,2327
1749980906.2469423,2538
1749980906.2470732,2492
1749980906.2472036,2241
1749980906.2473333,1898
1749980906.247495,1571
1749980906.2476249,1320
1749980906.2477567,1214
1749980906.247893,1384
1749980906.248435,1809
1749980906.2485652,2264
1749980906.2487915,2512
1749980906.2489848,2503
1749980906.2491784,2277
1749980906.2493408,1946
1749980906.24946,1616
1749980906.249578,1356
1749980906.2497294,1217
1749980906.2498484,1338
1749980906.2499843,1733
1749980906.2501159,2207
1749980906.2502556,2498
1749980906.2503996,2530
1749980906.2505198,2329
1749980906.2506952,2009
1749980906.2508507,1674
1749980906.2510664,1404
1749980906.251265,1231
1749980906.251387,1291
1749980906.2515767,1638
1749980906.2517934,2118
1749980906.2520146,2454
1749980906.2521737,2529
1749980906.2540944,2355
1749980906.25471,2043
1749980906.2549522,1706
1749980906.2552776,1432
1749980906.2556129,1246
1749980906.2557745,1265
1749980906.256972,1572
1749980906.2572093,2056
1749980906.257291,2435
1749980906.2581573,2559
1749980906.2588716,2421
1749980906.259497,2121
1749980906.2597945,1777
1749980906.2605078,1491
1749980906.260926,1289
1749980906.2625995,1267
1749980906.2626903,1528
1749980906.2638905,1998
1749980906.264095,2412
1749980906.265603,2587
1749980906.2658865,2494
1749980906.2664156,2210
1749980906.2665355,1855
1749980906.2666857,1546
1749980906.2671454,1324
1749980906.2673504,1259
1749980906.267572,1461
1749980906.267777,1887
1749980906.267973,2306
1749980906.2681527,2523
1749980906.2683146,2492
1749980906.2685335,2250
1749980906.2687232,1899
1749980906.2689333,1564
1749980906.2691278,1322
1749980906.2692635,1236
1749980906.2694407,1415
1749980906.2696292,1829
1749980906.2698314,2266
1749980906.27012,2512
1749980906.270269,2519
1749980906.2705016,2305
1749980906.2707481,1967
1749980906.2709363,1619
1749980906.2711544,1355
1749980906.2713726,1227
1749980906.2715833,1352
1749980906.271818,1728
1749980906.2720466,2178
1749980906.272248,2467
1749980906.2724836,2523
1749980906.2726712,2348
1749980906.2728791,2025
1749980906.2730846,1666
1749980906.2732694,1384
1749980906.2734463,1225
1749980906.2735763,1304
1749980906.2737262,1643
1749980906.2738473,2097
1749980906.2739878,2423
1749980906.274098,2526
1749980906.2742345,2392
1749980906.2743573,2091
1749980906.2744777,1726
1749980906.2746139,1420
1749980906.2747371,1231
1749980906.274862,1264
1749980906.2749984,1572
1749980906.2751737,2034
1749980906.2752955,2395
1749980906.2754147,2529
1749980906.27555,2422
1749980906.2756703,2134
1749980906.275792,1770
1749980906.2759302,1453
1749980906.2935581,1238
1749980906.3327885,1219
1749980906.3898482,1477
1749980906.4806335,1928
1749980906.643296,2329
1749980906.809397,2518
1749980907.160323,2462
1749980907.3181777,2201
1749980907.36176,1836
1749980907.3876705,1497
1749980907.403439,1259
1749980907.4139636,1202
1749980907.4369168,1423
1749980907.4918094,1864
1749980907.5573118,2295
1749980907.5710714,2528
1749980907.6275392,2519
1749980907.8368804,2290
1749980907.8448198,1934
1749980907.846124,1580
1749980907.8894475,1320
1749980907.9064023,1225
1749980907.928096,1400
1749980907.9281867,1812
1749980907.9284575,2257
1749980908.0208688,2525
1749980908.0901532,2562
1749980908.0974612,2371
1749980908.141825,2033
1749980908.2047868,1668
1749980908.271135,1388
1749980908.3044097,1259
1749980908.315904,1390
1749980908.3481665,1771
1749980908.4040449,2222
1749980908.453732,2516
1749980908.5283802,2583
1749980908.5604346,2420
1749980908.5606806,2100
1749980908.5814703,1730
1749980908.6193905,1434
1749980908.6372805,1269
1749980908.6856415,1348
1749980908.8038943,1693
1749980908.9262245,2154
1749980908.9591253,2489
1749980909.0462248,2599
1749980909.08588,2471
1749980909.2120762,2167
1749980909.3820837,1790
1749980909.4558938,1470
1749980909.5034935,1270
1749980909.550336,1298
1749980909.6032825,1601
1749980909.6217802,2059
1749980909.700414,2422
1749980909.732063,2565
1749980909.7551234,2471
1749980909.7697842,2193
1749980909.8740985,1827
1749980909.912618,1503
1749980909.9591775,1285
1749980910.0500197,1269
1749980910.1187727,1528
1749980910.1497326,1975
1749980910.205887,2368
1749980910.363689,2551
1749980910.4292912,2496
1749980910.519051,2239
1749980910.5301516,1876
1749980910.559493,1538
1749980910.5909426,1301
1749980910.5914142,1243
1749980910.6025586,1455
1749980910.6389503,1882
1749980910.656614,2304
1749980910.6813188,2536
1749980910.8158784,2534
1749980910.8236961,2311
1749980910.8238356,1955
1749980910.824,1595
1749980910.8241453,1334
1749980910.8242946,1239
1749980910.824443,1414
1749980910.8245785,1821
1749980910.8247366,2259
1749980910.8248842,2520
1749980910.8250308,2553
1749980910.8255777,2364
1749980910.8259187,2032
1749980910.8311307,1672
1749980910.8312247,1399
1749980910.8313138,1272
1749980910.8420625,1403
1749980910.8421404,1785
1749980910.8422103,2243
1749980910.8422825,2548
1749980910.9000041,2628
1749980910.9858463,2474
1749980911.008034,2156
1749980911.0101032,1781
1749980911.0240233,1476
1749980911.0258431,1305
1749980911.0260441,1382
1749980911.0394375,1727
1749980911.0398078,2192
1749980911.0403905,2530
1749980911.0405016,2642
1749980911.0406063,2517
1749980911.0407097,2219
1749980911.041498,1849
1749980911.0423467,1533
1749980911.0424507,1328
1749980911.0602021,1342
1749980911.0795822,1632
1749980911.0796728,2089
1749980911.079759,2465
1749980911.0798428,2624
1749980911.0799263,2537
1749980911.0800087,2256
1749980911.0800915,1884
1749980911.0801744,1555
1749980911.0802581,1337
1749980911.080341,1318
1749980911.080423,1574
1749980911.0805056,2024
1749980911.0805848,2429
1749980911.1113956,2627
1749980911.121756,2585
1749980911.1218545,2336
1749980911.1219401,1975
1749980911.1220293,1633
1749980911.1221597,1389
1749980911.122268,1322
1749980911.1224377,1529
1749980911.1225579,1959
1749980911.122667,2393
1749980911.1227758,2637
1749980911.1228845,2643
1749980911.1229954,2425
1749980911.1231046,2073
1749980911.1232138,1719
1749980911.1233437,1459
1749980911.1234894,1357
1749980911.1236444,1517
1749980911.1238184,1914
1749980911.140144,2355
1749980911.140247,2625
1749980911.140338,2666
1749980911.1404276,2476
1749980911.1405103,2139
1749980911.1405911,1775
1749980911.1407628,1498
1749980911.140853,1361
1749980911.1409445,1472
1749980911.141033,1833
1749980911.1411147,2279
1749980911.141186,2582
1749980911.141367,2662
1749980911.1414528,2508
1749980911.1415374,2189
1749980911.1417189,1814
1749980911.1418023,1510
1749980911.1418955,1336
1749980911.1419847,1403
1749980911.1420686,1739
1749980911.143544,2201
1749980911.1436248,2542
1749980911.1437137,2659
1749980911.143803,2539
1749980911.1439135,2246
1749980911.1440036,1880
1749980911.1440897,1566
1749980911.1441703,1366
1749980911.1442583,1384
1749980911.1443617,1678
1749980911.1444514,2137
1749980911.1445403,2513
1749980911.1446102,2673
1749980911.1552293,2596
1749980911.165588,2329
1749980911.1656704,1968
1749980911.1657405,1643
1749980911.1987417,1423
1749980911.206562,1400
1749980911.207493,1651
1749980911.2084217,2097
1749980911.2091584,2500
1749980911.2098951,2699
1749980911.2108183,2662
1749980911.2117023,2419
1749980911.2123342,2059
1749980911.2124174,1711
1749980911.2124953,1464
1749980911.2125728,1398
1749980911.2126532,1609
1749980911.2127311,2041
1749980911.2128081,2470
1749980911.2128887,2705
1749980911.2129672,2705
1749980911.2130463,2488
1749980911.213129,2138
1749980911.2132156,1776
1749980911.2133214,1502
1749980911.2134483,1387
1749980911.2135575,1543
1749980911.2136602,1945
1749980911.2137403,2393
1749980911.213819,2667
1749980911.2138984,2709
1749980911.2139778,2524
1749980911.2140603,2193
1749980911.21414,1828
1749980911.2142184,1542
1749980911.2142985,1394
1749980911.2143776,1501
1749980911.2144582,1870
1749980911.214538,2331
1749980911.2146218,2644
1749980911.2147048,2729
1749980911.214785,2578
1749980911.2148705,2261
1749980911.2149832,1887
1749980911.2150636,1580
1749980911.215143,1400
1749980911.2152214,1457
1749980911.2153008,1783
1749980911.2153792,2241
1749980911.2154572,2582
1749980911.2155356,2704
1749980911.2156153,2588
1749980911.2156947,2295
1749980911.2157724,1922
1749980911.2158508,1601
1749980911.2159297,1394
1749980911.2160106,1403
1749980911.2160947,1686
1749980911.2161734,2137
1749980911.2162516,2508
1749980911.2163298,2666
1749980911.2164059,2586
1749980911.2164824,2312
1749980911.2214167,1939
1749980911.2328389,1596
1749980911.3623805,1354
1749980911.372064,1306
1749980911.3827922,1540
1749980911.3829331,1977
1749980911.3830264,2376
1749980911.383118,2565
1749980911.3832085,2516
1749980911.3973675,2265
1749980911.4070683,1908
1749980911.4074526,1563
1749980911.40755,1306
1749980911.407622,1210
1749980911.4076934,1392
1749980911.4077642,1812
1749980911.4078355,2249
1749980911.4079065,2489
1749980911.4079778,2481
1749980911.4080493,2248
1749980911.4081209,1892
1749980911.4081936,1539
1749980911.4082665,1282
1749980911.4083567,1169
1749980911.4084294,1311
1749980911.4085004,1698
1749980911.4085727,2149
1749980911.4086413,2441
1749980911.4087005,2500
1749980911.4087715,2321
1749980911.4088438,1986
1749980911.408921,1619
1749980911.4089935,1338
1749980911.4090645,1196
1749980911.4091358,1299
1749980911.409207,1655
1749980911.4092665,2109
1749980911.409333,2426
1749980911.409403,2521
1749980911.4094818,2378
1749980911.4095519,2067
1749980911.4096217,1697
1749980911.4096918,1394
1749980911.4097614,1215
1749980911.4098315,1267
1749980911.4099019,1587
1749980911.4099715,2049
1749980911.410042,2404
1749980911.4101126,2537
1749980911.4101822,2425
1749980911.4102519,2129
1749980911.4103224,1756
1749980911.4103928,1439
1749980911.4104626,1235
1749980911.4105334,1244
1749980911.410603,1528
1749980911.410673,1987
1749980911.4107432,2375
1749980911.410813,2547
1749980911.4108834,2477
1749980911.4109533,2211
1749980911.4110231,1846
1749980911.4110925,1512
1749980911.4111621,1278
1749980911.4112318,1233
1749980911.4113002,1469
1749980911.4113698,1914
1749980911.411441,2331
1749980911.4115107,2542
1749980911.41158,2513
1749980911.4371336,2273
1749980911.4373581,1917
1749980911.4374638,1572
1749980911.437566,1322
1749980911.4376686,1239
1749980911.43777,1429
1749980911.437872,1849
1749980911.4379745,2284
1749980911.438076,2531
1749980911.4381776,2543
1749980911.4386113,2333
1749980911.4387395,1990
1749980911.4388425,1631
1749980911.438946,1356
1749980911.4390552,1228
1749980911.4391577,1361
1749980911.439755,1749
1749980911.439862,2205
1749980911.439966,2497
1749980911.4400702,2555
1749980911.4402342,2375
1749980911.4403374,2043
1749980911.4404397,1679
1749980911.440542,1398
1749980911.4408116,1249
1749980911.4409223,1342
1749980911.4410248,1691
1749980911.4411266,2143
1749980911.4413662,2461
1749980911.442646,2557
1749980911.4427564,2417
1749980911.4428604,2109
1749980911.442972,1738
1749980911.443077,1432
1749980911.4431798,1246
1749980911.4433427,1291
1749980911.4434726,1609
1749980911.4436464,2073
1749980911.4438403,2431
1749980911.443942,2568
1749980911.4440453,2464
1749980911.4441485,2178
1749980911.44425,1810
1749980911.4443572,1491
1749980911.4444606,1282
1749980911.4445624,1278
1749980911.4447768,1548
1749980911.4448922,1996
1749980911.4450388,2379
1749980911.4451632,2551
1749980911.445437,2486
1749980911.4457526,2223
1749980911.451912,1857
1749980911.4520707,1518
1749980911.4647639,1281
1749980911.464844,1233
1749980911.4649155,1461
1749980911.4649985,1898
1749980911.4650686,2313
1749980911.465134,2527
1749980911.465205,2505
1749980911.4652677,2272
1749980911.4653263,1920
1749980911.4653947,1577
1749980911.4654691,1327
1749980911.4655397,1240
1749980911.4656103,1420
1749980911.4656801,1831
1749980911.4657505,2267
1749980911.4658208,2522
1749980911.4658911,2543
1749980911.465961,2339
1749980911.4660316,1996
1749980911.4661024,1637
1749980911.4661727,1368
1749980911.4662433,1246
1749980911.466314,1380
1749980911.466384,1761
1749980911.4664543,2209
1749980911.4665277,2498
1749980911.4665978,2559
1749980911.4666674,2388
1749980911.4667375,2061
1749980911.4668071,1693
1749980911.4668772,1404
1749980911.4669468,1248
1749980911.4670162,1340
1749980911.467086,1695
1749980911.4671557,2157
1749980911.4672253,2482
1749980911.467295,2578
1749980911.467365,2437
1749980911.4674344,2132
1749980911.4675038,1766
1749980911.4675741,1460
1749980911.4676437,1269
1749980911.4677129,1303
1749980911.4677827,1615
1749980911.4678524,2085
1749980911.4679224,2453
1749980911.4679918,2593
1749980911.4680612,2487
1749980911.4681318,2201
1749980911.4682019,1839
1749980911.4682717,1526
1749980911.5089533,1315
1749980911.5090706,1302
1749980911.5091743,1567
1749980911.5094068,2022
1749980911.5095093,2420
1749980911.5096118,2602
1749980911.5099123,2538
1749980911.538757,2272
1749980911.5757172,1905
1749980911.5776348,1565
1749980911.5777416,1325
1749980911.5778987,1268
1749980911.5780015,1493
1749980911.5781038,1933
1749980911.5782056,2354
1749980911.5783226,2571
1749980911.5784247,2550
1749980911.5932271,2319
1749980911.657943,1969
1749980911.6660266,1619
1749980911.666309,1355
1749980911.673406,1255
1749980911.6737547,1438
1749980911.6898563,1868
1749980911.6940188,2323
1749980911.694098,2580
1749980911.694167,2589
1749980911.694235,2373
1749980911.6943052,2033
1749980911.6943743,1680
1749980911.6944423,1405
1749980911.6945114,1263
1749980911.694582,1381
1749980911.6946511,1764
1749980911.6947196,2231
1749980911.694788,2536
1749980911.6948562,2599
1749980911.6949253,2424
1749980911.6950097,2104
1749980911.6950781,1749
1749980911.695145,1460
1749980911.695212,1286
1749980911.6952791,1354
1749980911.6953456,1703
1749980911.6954124,2180
1749980911.6954787,2520
1749980911.6955454,2615
1749980911.6956124,2463
1749980911.6956787,2154
1749980911.6957455,1795
1749980911.6958132,1489
1749980911.6958802,1282
1749980911.6959472,1301
1749980911.696014,1624
1749980911.6960814,2127
1749980911.6961482,2519
1749980911.696216,2648
1749980911.6962862,2516
1749980911.6963537,2221
1749980911.6964242,1875
1749980911.6964931,1570
1749980911.6965609,1337
1749980911.6966197,1286
1749980911.6966858,1537
1749980911.6967525,2018
1749980911.6968184,2450
1749980911.6968858,2634
1749980911.6969583,2545
1749980911.6970334,2269
1749980911.6971126,1923
1749980911.6971908,1609
1749980911.697266,1363
1749980911.6973255,1272
1749980911.697386,1474
1749980911.697455,1933
1749980911.6975322,2395
1749980911.6976097,2629
1749980911.6976886,2589
1749980911.6977684,2336
1749980911.6978457,1991
1749980911.7665062,1662
1749980911.7936063,1405
1749980911.793731,1283
1749980911.802688,1442
1749980911.8028185,1873
1749980911.8030176,2350
1749980911.8252401,2619
1749980911.8253508,2616
1749980911.8346975,2387
1749980911.8760974,2052
1749980911.8762352,1717
1749980911.876363,1446
1749980911.876951,1286
1749980911.8848085,1382
1749980911.8849032,1766
1749980911.8850033,2254
1749980911.8850894,2573
1749980911.8851776,2630
1749980911.8852744,2441
1749980911.8853428,2119
1749980911.8854098,1771
1749980911.8857296,1483
1749980911.8858166,1296
1749980911.8859036,1346
1749980911.8859882,1690
1749980911.886075,2178
1749980911.8861616,2528
1749980911.886249,2619
1749980911.8863378,2458
1749980911.8864276,2148
1749980911.8865144,1801
1749980911.8866005,1510
1749980911.8866866,1304
1749980911.8867726,1303
1749980911.886858,1596
1749980911.8869445,2078
1749980911.8870316,2470
1749980911.8871176,2613
1749980911.8872037,2493
1749980911.8872924,2200
1749980911.8936338,1850
1749980911.902643,1548
1749980911.9028215,1325
1749980911.9029038,1279
1749980911.9029856,1524
1749980911.9030626,1992
1749980911.9031408,2415
1749980911.9032161,2598
1749980911.9146898,2515
1749980911.9148214,2239
1749980911.914927,1892
1749980911.915041,1581
1749980911.915145,1344
1749980911.9153373,1256
1749980911.9154422,1449
1749980911.9155457,1895
1749980911.9156504,2350
1749980911.915755,2584
1749980911.9158587,2548
1749980911.9159617,2296
1749980911.9160674,1952
1749980911.9161718,1628
1749980911.9162755,1378
1749980911.9163783,1257
1749980911.9164813,1403
1749980911.916585,1819
1749980911.9167795,2291
1749980911.916883,2566
1749980911.9169858,2576
1749980911.9170887,2355
1749980911.9171915,2025
1749980911.9173858,1692
1749980911.9174898,1426
1749980911.9175928,1268
1749980911.917696,1359
1749980911.9177997,1736
1749980911.9179032,2219
1749980911.918006,2536
1749980911.9181097,2590
1749980911.9182127,2400
1749980911.9183314,2079
1749980911.9184349,1735
1749980911.9185376,1453
1749980911.9186409,1268
1749980911.9187567,1315
1749980911.9188595,1656
1749980911.9189622,2148
1749980911.9190648,2504
1749980911.9191678,2597
1749980911.9192715,2435
1749980911.919374,2124
1749980911.9194767,1776
1749980911.9195795,1483
1749980911.9196823,1273
1749980911.919785,1267
1749980911.9616983,1558
1749980911.9920135,2044
1749980911.99215,2443
1749980911.9922285,2591
1749980911.9923036,2477
1749980911.9923787,2188
1749980911.999339,1836
1749980912.0109847,1527
1749980912.0110986,1299
1749980912.0112154,1250
1749980912.0113177,1491
1749980912.0114207,1955
1749980912.0115225,2376
1749980912.0116358,2565
1749980912.0117397,2494
1749980912.0118437,2229
1749980912.0119462,1880
1749980912.0120482,1556
1749980912.01215,1310
1749980912.0122519,1223
1749980912.0123549,1424
1749980912.012457,1874
1749980912.0125594,2330
1749980912.0126615,2567
1749980912.012764,2542
1749980912.0128658,2303
1749980912.0129683,1962
1749980912.0130703,1627
1749980912.0131774,1365
1749980912.0132797,1239
1749980912.0133817,1387
1749980912.013483,1804
1749980912.0135849,2277
1749980912.0136864,2555
1749980912.013789,2573
1749980912.0138905,2359
1749980912.013993,2023
1749980912.0140946,1677
1749980912.0141962,1404
1749980912.014298,1248
1749980912.0143998,1337
1749980912.014501,1697
1749980912.014603,2161
1749980912.0147047,2479
1749980912.0148063,2560
1749980912.0149088,2399
1749980912.015016,2080
1749980912.0151246,1714
1749980912.0152256,1418
1749980912.0153275,1246
1749980912.0154293,1314
1749980912.0155306,1655
1749980912.0156326,2123
1749980912.015734,2464
1749980912.0158362,2573
1749980912.0159512,2441
1749980912.0160553,2140
1749980912.0161567,1773
1749980912.0162582,1460
1749980912.034119,1258
1749980912.0530498,1274
1749980912.0535123,1573
1749980912.0624905,2042
1749980912.0626035,2425
1749980912.062711,2582
1749980912.0628853,2492
1749980912.0629947,2214
1749980912.0631022,1849
1749980912.0632215,1521
1749980912.0633285,1291
1749980912.063435,1258
1749980912.0635426,1512
1749980912.0636616,1973
1749980912.0637689,2390
1749980912.0638762,2586
1749980912.063983,2531
1749980912.0641038,2271
1749980912.0642247,1911
1749980912.0644681,1570
1749980912.064607,1317
1749980912.0648654,1233
1749980912.065012,1433
1749980912.0651312,1874
1749980912.0658448,2324
1749980912.0659955,2570
1749980912.0661137,2560
1749980912.066242,2328
1749980912.06636,1979
1749980912.066478,1631
1749980912.0665958,1365
1749980912.0669963,1241
1749980912.0671215,1386
1749980912.0672405,1793
1749980912.0673583,2260
1749980912.067477,2544
1749980912.0676353,2578
1749980912.0677562,2377
1749980912.0678818,2045
1749980912.0680003,1692
1749980912.0681188,1412
1749980912.068231,1253
1749980912.0683208,1352
1749980912.068398,1732
1749980912.0684862,2219
1749980912.0685709,2544
1749980912.0686471,2614
1749980912.0694854,2442
1749980912.1119642,2128
1749980912.1196666,1779
1749980912.119785,1487
1749980912.1200037,1294
1749980912.1200738,1332
1749980912.1201396,1666
1749980912.1202087,2159
1749980912.1202748,2527
1749980912.120341,2641
1749980912.120406,2498
1749980912.1204715,2194
1749980912.1205368,1841
1749980912.1206021,1539
1749980912.1206682,1324
1749980912.1207345,1312
1749980912.1207995,1596
1749980912.1208634,2076
1749980912.1209288,2476
1749980912.120994,2632
1749980912.1210601,2530
1749980912.1211267,2250
1749980912.1418777,1903
1749980912.1480994,1592
1749980912.1800056,1358
1749980912.180548,1296
1749980912.186305,1527
1749980912.2003884,1991
1749980912.2091672,2426
1749980912.2107754,2629
1749980912.2152326,2566
1749980912.2264683,2300
1749980912.2265463,1949
1749980912.2266192,1624
1749980912.2266924,1377
1749980912.2267723,1278
1749980912.2268476,1457
1749980912.2269218,1892
1749980912.226994,2349
1749980912.227066,2598
1749980912.2271354,2584
1749980912.2272067,2351
1749980912.227278,2013
1749980912.227349,1680
1749980912.2678375,1417
1749980912.313258,1280
1749980912.3138416,1407
1749980912.3230631,1809
1749980912.323355,2282
1749980912.3234286,2566
1749980912.3235116,2587
1749980912.3235817,2371
1749980912.3236525,2037
1749980912.3478737,1696
1749980912.38569,1425
1749980912.3924913,1261
1749980912.3947802,1341
1749980912.3948796,1711
1749980912.3949885,2203
1749980912.4036257,2539
1749980912.4116006,2609
1749980912.4116762,2428
1749980912.4117444,2108
1749980912.4118133,1763
1749980912.4126108,1481
1749980912.4126823,1288
1749980912.4127533,1312
1749980912.4128203,1629
1749980912.4128864,2115
1749980912.4129524,2489
1749980912.4130192,2607
1749980912.413086,2462
1749980912.413153,2152
1749980912.4132216,1795
1749980912.4132903,1494
1749980912.4133563,1282
1749980912.4134235,1266
1749980912.4134898,1544
1749980912.4135559,2022
1749980912.4136217,2430
1749980912.4136877,2595
1749980912.413755,2498
1749980912.4228766,2216
1749980912.4342625,1863
1749980912.4344032,1548
1749980912.4344783,1313
1749980912.4345508,1253
1749980912.4346156,1485
1749980912.4347112,1948
1749980912.4347875,2384
1749980912.4427438,2588
1749980912.4917233,2528
1749980912.5147483,2266
1749980912.5148883,1916
1749980912.5149832,1588
1749980912.5275042,1335
1749980912.5286531,1230
1749980912.535493,1409
1749980912.550949,1848
1749980912.5866022,2312
1749980912.586683,2565
1749980912.586757,2554
1749980912.5868294,2321
1749980912.5869012,1981
1749980912.5869727,1644
1749980912.5870442,1377
1749980912.587116,1239
1749980912.5871878,1374
1749980912.587262,1787
1749980912.5873327,2272
1749980912.5874035,2565
1749980912.5874739,2591
1749980912.5875452,2383
1749980912.5876157,2055
1749980912.5876863,1714
1749980912.5877576,1435
1749980912.5878313,1260
1749980912.5879035,1332
1749980912.587975,1698
1749980912.5880451,2190
1749980912.5881155,2528
1749980912.5881858,2603
1749980912.5882566,2430
1749980912.5884402,2116
1749980912.5885131,1772
1749980912.5885837,1484
1749980912.588647,1284
1749980912.5887084,1304
1749980912.588779,1621
1749980912.5888498,2108
1749980912.5889206,2481
1749980912.588991,2599
1749980912.589061,2458
1749980912.589131,2156
1749980912.5891995,1804
1749980912.589258,1502
1749980912.589325,1284
1749980912.589395,1262
1749980912.5894651,1535
1749980912.589535,2014
1749980912.589606,2423
1749980912.5896769,2587
1749980912.5897467,2489
1749980912.5898173,2209
1749980912.5898874,1859
1749980912.589958,1546
1749980912.590028,1311
1749980912.590098,1245
1749980912.5901678,1470
1749980912.5902379,1931
1749980912.590308,2371
1749980912.590378,2582
1749980912.590449,2530
1749980912.5905213,2275
1749980912.5937831,1930
1749980912.5938644,1604
1749980912.5939379,1353
1749980912.5940113,1247
1749980912.6337743,1419
1749980912.6379914,1850
1749980912.638169,2310
1749980912.6383686,2563
1749980912.639102,2554
1749980912.6395214,2325
1749980912.6396937,1986
1749980912.6398513,1645
1749980912.640002,1374
1749980912.6401792,1228
1749980912.6403358,1348
1749980912.6404939,1746
1749980912.640657,2222
1749980912.6408072,2517
1749980912.6409562,2551
1749980912.6411188,2351
1749980912.641278,2025
1749980912.6414523,1682
1749980912.662403,1405
1749980912.683046,1233
1749980912.6883094,1300
1749980912.6884022,1653
1749980912.688482,2134
1749980912.6885648,2472
1749980912.688642,2559
1749980912.6887002,2397
1749980912.6887743,2085
1749980912.688854,1733
1749980912.6889327,1443
1749980912.6890109,1250
1749980912.6890893,1277
1749980912.6891665,1590
1749980912.689235,2067
1749980912.6892993,2435
1749980912.6893764,2558
1749980912.6894553,2431
1749980912.689544,2139
1749980912.6896222,1790
1749980912.6897008,1487
1749980912.689781,1268
1749980912.6898575,1242
1749980912.6899347,1509
1749980912.6900122,1983
1749980912.6900902,2392
1749980912.690167,2560
1749980912.6902442,2467
1749980912.690322,2188
1749980912.690399,1839
1749980912.690476,1527
1749980912.6905534,1292
1749980912.6906297,1221
1749980912.6907089,1438
1749980912.690785,1894
1749980912.690862,2339
1749980912.6909378,2557
1749980912.6910136,2508
1749980912.69109,2252
1749980912.6911678,1907
1749980912.6912448,1584
1749980912.6913214,1335
1749980912.691398,1224
1749980912.6914773,1387
1749980912.6915538,1816
1749980912.6916366,2285
1749980912.6938167,2550
1749980912.6939664,2545
1749980912.694182,2314
1749980912.6944644,1977
1749980912.6946893,1644
1749980912.6950326,1381
1749980912.6953256,1234
1749980912.6955314,1347
1749980912.69596,1744
1749980912.6964161,2230
1749980912.69711,2533
1749980912.6980207,2566
1749980912.7020078,2360
1749980912.7021613,2034
1749980912.7022657,1697
1749980912.702368,1423
1749980912.7127042,1244
1749980912.7165658,1302
1749980912.7622147,1657
1749980912.829741,2157
1749980912.830181,2512
1749980912.831235,2599
1749980912.8313158,2428
1749980912.8313925,2113
1749980912.8314695,1767
1749980912.8317068,1479
1749980912.859731,1273
1749980912.8598113,1277
1749980912.8598828,1580
1749980912.8599539,2070
1749980912.9286292,2458
1749980912.928851,2589
1749980912.9290578,2456
1749980912.9293585,2158
1749980912.9295642,1812
1749980912.9297671,1514
1749980912.9299695,1293
1749980912.9301705,1257
1749980912.930372,1517
1749980912.9305758,1998
1749980912.930762,2422
1749980912.9308946,2598
1749980912.9310555,2506
1749980912.931188,2226
1749980912.9313195,1878
1749980912.9314568,1565
1749980912.9315863,1326
1749980912.9358747,1243
1749980912.9360685,1449
1749980912.9361365,1902
1749980912.936203,2350
1749980912.9362688,2572
1749980912.9363353,2527
1749980912.9364014,2275
1749980912.9364676,1934
1749980912.936535,1611
1749980912.936605,1360
1749980912.9366689,1245
1749980912.9367292,1406
1749980912.9367957,1835
1749980912.936866,2307
1749980912.9369361,2572
1749980912.9370055,2569
1749980912.9370754,2338
1749980912.937145,2000
1749980912.9372153,1665
1749980912.9372785,1399
1749980912.9373395,1248
1749980912.9374099,1353
1749980912.9374797,1741
1749980912.9375498,2224
1749980912.9449716,2531
1749980912.9450643,2573
1749980912.9452302,2374
1749980912.9453146,2048
1749980912.945382,1707
1749980912.9454486,1432
1749980912.945515,1256
1749980912.9455812,1313
1749980912.945648,1661
1749980912.996145,2153
1749980913.0074258,2511
1749980913.0080729,2611
1749980913.008663,2454
1749980913.0087411,2143
1749980913.0088136,1792
1749980913.008884,1499
1749980913.0089529,1298
1749980913.0090284,1310
1749980913.0090966,1614
1749980913.0091674,2100
1749980913.0092359,2487
1749980913.0093057,2623
1749980913.0093782,2500
1749980913.0094473,2206
1749980913.0095162,1853
1749980913.0095847,1545
1749980913.0096524,1318
1749980913.0097215,1276
1749980913.0097895,1530
1749980913.0098588,2004
1749980913.0099275,2426
1749980913.0120978,2609
1749980913.0343735,2529
1749980913.034735,2256
1749980913.0357335,1905
1749980913.036115,1584
1749980913.036494,1341
1749980913.0368583,1262
1749980913.0696135,1470
1749980913.0738673,1920
1749980913.0740285,2365
1749980913.0742607,2590
1749980913.0744967,2553
1749980913.0746968,2306
1749980913.074882,1957
1749980913.075352,1616
1749980913.0755408,1351
1749980913.075757,1232
1749980913.07598,1396
1749980913.0761726,1824
1749980913.0767064,2294
1749980913.0767832,2561
1749980913.076863,2566
1749980913.076939,2345
1749980913.0770438,2006
1749980913.0771425,1659
1749980913.077253,1385
1749980913.0797844,1236
1749980913.0798948,1346
1749980913.079999,1730
1749980913.0801036,2205
1749980913.080208,2513
1749980913.0803154,2570
1749980913.0804186,2389
1749980913.0805228,2069
1749980913.0806258,1715
1749980913.0807295,1425
1749980913.0808516,1244
1749980913.0809548,1303
1749980913.081058,1646
1749980913.0811613,2124
1749980913.0812662,2467
1749980913.0813735,2564
1749980913.0814772,2416
1749980913.0815797,2109
1749980913.0817356,1749
1749980913.0818396,1445
1749980913.0819423,1244
1749980913.0820465,1268
1749980913.0821497,1587
1749980913.0822527,2080
1749980913.0826652,2470
1749980913.0863593,2611
1749980913.086442,2491
1749980913.0865195,2196
1749980913.0865963,1835
1749980913.0866816,1520
1749980913.0867581,1294
1749980913.0868344,1252
1749980913.0869102,1494
1749980913.0869865,1947
1749980913.0870633,2357
1749980913.0871394,2547
1749980913.087216,2482
1749980913.0872924,2218
1749980913.087369,1859
1749980913.087445,1527
1749980913.0875213,1285
1749980913.0875955,1220
1749980913.089955,1446
1749980913.0900412,1911
1749980913.0901182,2365
1749980913.090193,2590
1749980913.0902715,2553
1749980913.0903504,2306
1749980913.0904284,1963
1749980913.0905068,1628
1749980913.0905848,1362
1749980913.090675,1232
1749980913.090753,1383
1749980913.090831,1811
1749980913.0909092,2294
1749980913.0909874,2573
1749980913.0910656,2582
1749980913.091144,2360
1749980913.0912228,2025
1749980913.091307,1683
1749980913.0913851,1405
1749980913.0914626,1240
1749980913.0915406,1335
1749980913.0916674,1722
1749980913.091749,2216
1749980913.0918276,2537
1749980913.0919058,2589
1749980913.0919836,2393
1749980913.0920618,2067
1749980913.0921397,1720
1749980913.092218,1435
1749980913.092296,1244
1749980913.0923777,1283
1749980913.0924609,1619
1749980913.092539,2109
1749980913.0957649,2471
1749980913.0958529,2575
1749980913.0959325,2421
1749980913.096011,2112
1749980913.0961084,1763
1749980913.0961876,1470
1749980913.0962663,1264
1749980913.096344,1263
1749980913.096422,1558
1749980913.096505,2045
1749980913.0966005,2442
1749980913.0966692,2588
1749980913.0967293,2469
1749980913.0968077,2174
1749980913.096886,1821
1749980913.0991015,1516
1749980913.0991826,1293
1749980913.0992594,1247
1749980913.099338,1492
1749980913.0994165,1961
1749980913.0995078,2392
1749980913.099585,2588
1749980913.099662,2517
1749980913.0997384,2246
1749980913.0998151,1893
1749980913.099892,1570
1749980913.0999844,1326
1749980913.1000621,1240
1749980913.1001387,1438
1749980913.1002786,1887
1749980913.10061,2344
1749980913.1010776,2582
1749980913.101157,2551
1749980913.1012266,2302
1749980913.10129,1955
1749980913.1013668,1620
1749980913.1014433,1360
1749980913.1015203,1233
1749980913.1313019,1378
1749980913.1633568,1797
1749980913.169676,2276
1749980913.179658,2560
1749980913.1797373,2575
1749980913.1813245,2355
1749980913.1888452,2017
1749980913.1889336,1673
1749980913.1890063,1399
1749980913.1890788,1239
1749980913.189151,1332
1749980913.1892169,1712
1749980913.1892762,2199
1749980913.1908114,2521
1749980913.190898,2580
1749980913.1909719,2392
1749980913.1910446,2069
1749980913.1911168,1720
1749980913.1912403,1433
1749980913.1913128,1245
1749980913.1913843,1291
1749980913.191456,1636
1749980913.191528,2136
1749980913.1915987,2505
1749980913.1925368,2612
1749980913.1926153,2459
1749980913.1926768,2149
1749980913.192745,1795
1749980913.1928172,1493
1749980913.1928928,1278
1749980913.192965,1268
1749980913.1930368,1556
1749980913.193109,2042
1749980913.1931803,2441
1749980913.1932423,2591
1749980913.1933148,2477
1749980913.1933863,2188
1749980913.1934576,1836
1749980913.1935303,1526
1749980913.1936018,1295
1749980913.1936731,1244
1749980913.1937459,1492
1749980913.193818,1969
1749980913.193891,2404
1749980913.1939633,2597
1749980913.1940343,2519
1749980913.194102,2245
1749980913.1941705,1894
1749980913.1942399,1574
1749980913.19431,1330
1749980913.1943798,1236
1749980913.1944494,1426
1749980913.1945188,1872
1749980913.1981194,2333
1749980913.2100923,2580
1749980913.2102015,2558
1749980913.210306,2313
1749980913.210409,1962
1749980913.2105114,1621
1749980913.2106235,1357
1749980913.2107258,1230
1749980913.210828,1378
1749980913.21093,1797
1749980913.2110314,2274
1749980913.2111337,2554
1749980913.2112353,2568
1749980913.2113369,2352
1749980913.2114391,2021
1749980913.211541,1680
1749980913.2116659,1403
1749980913.2117684,1238
1749980913.2118702,1328
1749980913.211973,1710
1749980913.2121804,2206
1749980913.2122831,2536
1749980913.212386,2600
1749980913.212476,2415
1749980913.2125528,2096
1749980913.2126884,1751
1749980913.212766,1466
1749980913.2128441,1277
1749980913.2136066,1317
1749980913.2145417,1655
1749980913.2159305,2151
1749980913.2212129,2518
1749980913.22616,2626
1749980913.22624,2476
1749980913.22632,2169
1749980913.2376885,1815
1749980913.3529584,1513
1749980913.362059,1299
1749980913.3715403,1293
1749980913.3789508,1587
1749980913.379445,2076
1749980913.379549,2479
1749980913.37963,2632
1749980913.3797102,2522
1749980913.3797898,2235
1749980913.3798676,1880
1749980913.3799627,1561
1749980913.3800435,1321
1749980913.3801227,1264
1749980913.3802018,1507
1749980913.3802798,1980
1749980913.380359,2415
1749980913.3812842,2614
1749980913.3813758,2548
1749980913.3814642,2285
1749980913.3815465,1935
1749980913.41805,1607
1749980913.4190233,1354
1749980913.4348207,1258
1749980913.4348967,1452
1749980913.4349923,1903
1749980913.4586108,2364
1749980913.4604006,2605
1749980913.4605095,2579
1749980913.4615474,2336
1749980913.461673,1993
1749980913.4617796,1657
1749980913.4618824,1392
1749980913.4619868,1255
1749980913.4620955,1390
1749980913.4621968,1800
1749980913.462273,2278
1749980913.4623382,2567
1749980913.462404,2591
1749980913.4624696,2381
1749980913.4625387,2048
1749980913.462607,1704
1749980913.4626758,1425
1749980913.462741,1258
1749980913.4628067,1344
1749980913.462875,1720
1749980913.4629416,2211
1749980913.4630077,2541
1749980913.4630742,2606
1749980913.46314,2421
1749980913.4632056,2097
1749980913.4632716,1747
1749980913.4633381,1461
1749980913.463404,1272
1749980913.463472,1309
1749980913.4635375,1639
1749980913.4636064,2130
1749980913.4636714,2499
1749980913.4637372,2612
1749980913.463802,2469
1749980913.4638674,2166
1749980913.4639318,1813
1749980913.4639966,1510
1749980913.464061,1290
1749980913.4641287,1270
1749980913.4641979,1550
1749980913.4642627,2037
1749980913.464327,2450
1749980913.4643924,2614
1749980913.4644578,2509
1749980913.4645226,2221
1749980913.4645822,1870
1749980913.4647489,1562
1749980913.4648151,1331
1749980913.464881,1268
1749980913.4649746,1495
1749980913.4688761,1957
1749980913.4689882,2394
1749980913.4773002,2596
1749980913.4776847,2529
1749980913.4777615,2260
1749980913.4784307,1912
1749980913.478501,1597
1749980913.4790547,1359
1749980913.4805686,1264
1749980913.4806335,1446
1749980913.4807003,1886
1749980913.4807863,2351
1749980913.4808557,2604
1749980913.480923,2587
1749980913.4812298,2344
1749980913.4872153,1996
1749980913.487291,1659
1749980913.4873607,1395
1749980913.501367,1258
1749980913.5408394,1386
1749980913.5409293,1791
1749980913.5468335,2269
1749980913.5469518,2559
1749980913.5470285,2583
1749980913.547106,2372
1749980913.5500345,2043
1749980913.550206,1704
1749980913.5502923,1429
1749980913.5503778,1256
1749980913.552322,1330
1749980913.5524108,1696
1749980913.5524945,2188
1749980913.5525749,2523
1749980913.5526743,2591
1749980913.5527577,2408
1749980913.5528402,2087
1749980913.5529232,1742
1749980913.553006,1458
1749980913.5534184,1265
1749980913.5537875,1294
1749980913.5540695,1619
1749980913.554144,2110
1749980913.5542135,2483
1749980913.5542843,2597
1749980913.562405,2456
1749980913.5624835,2160
1749980913.5625513,1818
1749980913.563549,1525
1749980913.563643,1307
1749980913.5637105,1282
1749980913.563777,1554
1749980913.5638437,2037
1749980913.5639095,2449
1749980913.563976,2612
1749980913.564048,2509
1749980913.564116,2225
1749980913.5641837,1877
1749980913.5642512,1569
1749980913.5643172,1336
1749980913.5643826,1271
1749980913.5644472,1497
1749980913.5645127,1959
1749980913.5645854,2396
1749980913.5646498,2598
1749980913.5647147,2531
1749980913.56478,2267
1749980913.564845,1925
1749980913.5649104,1612
1749980913.5649874,1369
1749980913.565054,1267
1749980913.5651193,1442
1749980913.5651765,1879
1749980913.565238,2346
1749980913.5653036,2599
1749980913.5653682,2581
1749980913.5654325,2342
1749980913.5654974,2003
1749980913.5655615,1672
1749980913.565627,1409
1749980913.5656922,1266
1749980913.565757,1388
1749980913.5658221,1790
1749980913.5658872,2273
1749980913.565952,2568
1749980913.566016,2596
1749980913.5660803,2387
1749980913.5661461,2057
1749980913.5662107,1716
1749980913.5662763,1439
1749980913.5663412,1268
1749980913.5664055,1345
1749980913.5664723,1716
1749980913.566537,2211
1749980913.5666013,2548
1749980913.5666656,2622
1749980913.5667305,2447
1749980913.566795,2132
1749980913.5668595,1782
1749980913.5669243,1488
1749980913.5669887,1287
1749980913.5670533,1312
1749980913.5671182,1637
1749980913.5671833,2132
1749980913.5672476,2512
1749980913.5673118,2635
1749980913.5673761,2498
1749980913.567441,2196
1749980913.5675051,1840
1749980913.5675704,1536
1749980913.5676353,1322
1749980913.5677,1300
1749980913.5677648,1563
1749980913.5678291,2024
1749980913.5678945,2423
1749980913.5679598,2595
1749980913.5680244,2513
1749980913.5680883,2238
1749980913.5681531,1875
1749980913.5682175,1542
1749980913.5970235,1300
1749980913.6476023,1248
1749980913.6477308,1501
1749980913.6478105,1986
1749980913.6478865,2435
1749980913.6479619,2637
1749980913.648037,2569
1749980913.6481118,2303
1749980913.648586,1957
1749980913.648694,1629
1749980913.6487718,1367
1749980913.6488802,1248
1749980913.6589577,1425
1749980913.6590567,1882
1749980913.659133,2374
1749980913.659207,2640
1749980913.6592815,2619
1749980913.6593556,2371
1749980913.65943,2031
1749980913.6595042,1703
1749980913.6595778,1437
1749980913.6596522,1277
1749980913.6597261,1379
1749980913.659801,1773
1749980913.6598778,2266
1749980913.6599576,2582
1749980913.6600327,2627
1749980913.6601074,2422
1749980913.6923149,2087
1749980913.7507536,1737
1749980913.7520843,1455
1749980913.755266,1281
1749980913.755436,1353
1749980913.755518,1715
1749980913.7555978,2208
1749980913.755677,2554
1749980913.7568662,2639
1749980913.7570574,2467
1749980913.757138,2144
1749980913.7572248,1784
1749980913.757288,1488
1749980913.7573497,1292
1749980913.7578447,1319
1749980913.757928,1638
1749980913.7581332,2125
1749980913.7582128,2499
1749980913.758304,2619
1749980913.7583828,2480
1749980913.7584612,2175
1749980913.7586193,1818
1749980913.7587073,1514
1749980913.758787,1298
1749980913.7588673,1276
1749980913.7589471,1550
1749980913.7590249,2032
1749980913.759104,2449
1749980913.75918,2623
1749980913.759249,2528
1749980913.7593277,2244
1749980913.7594075,1887
1749980913.7594855,1567
1749980913.7595637,1329
1749980913.759643,1259
1749980913.7597241,1480
1749980913.759803,1940
1749980913.7605827,2388
1749980913.7606535,2610
1749980913.7607186,2562
1749980913.760798,2302
1749980913.7608774,1944
1749980913.7609556,1607
1749980913.761036,1350
1749980913.7611282,1243
1749980913.761208,1417
1749980913.7612753,1852
1749980913.7613547,2320
1749980913.7614334,2579
1749980913.7615123,2571
1749980913.7615902,2335
1749980913.7616782,1988
1749980913.7617574,1646
1749980913.7618356,1379
1749980913.7619123,1238
1749980913.761989,1358
1749980913.7620656,1756
1749980913.7621424,2241
1749980913.7622192,2550
1749980913.7622957,2596
1749980913.762372,2396
1749980913.7624485,2065
1749980913.7625258,1715
1749980913.7626028,1431
1749980913.7626796,1253
1749980913.7627566,1319
1749980913.7628334,1679
1749980913.7629101,2176
1749980913.7629864,2526
1749980913.763063,2610
1749980913.822259,2437
1749980913.8223999,2119
1749980913.8749707,1770
1749980913.885939,1479
1749980913.892136,1275
1749980913.981657,1289
1749980914.011472,1612
1749980914.0115886,2120
1749980914.0117257,2517
1749980914.0118337,2644
1749980914.0119407,2500
1749980914.0120468,2198
1749980914.012153,1855
1749980914.0122607,1560
1749980914.0123665,1332
1749980914.0124736,1285
1749980914.0125837,1543
1749980914.0190163,2030
1749980914.0218472,2461
1749980914.021973,2636
1749980914.022091,2534
1749980914.0222042,2249
1749980914.0223107,1900
1749980914.022658,1586
1749980914.0228,1340
1749980914.0232122,1257
1749980914.0290005,1476
1749980914.029589,1952
1749980914.03074,2413
1749980914.0308528,2630
1749980914.03096,2567
1749980914.0310652,2301
1749980914.0311713,1957
1749980914.031286,1635
1749980914.0313928,1376
1749980914.0314991,1250
1749980914.0319555,1407
1749980914.032065,1840
1749980914.032171,2315
1749980914.032561,2578
1749980914.0401459,2568
1749980914.0428643,2334
1749980914.0680304,1997
1749980914.068394,1661
1749980914.1037164,1392
1749980914.1048982,1241
1749980914.105006,1357
1749980914.1050901,1759
1749980914.1051726,2248
1749980914.1052468,2551
1749980914.1053212,2585
1749980914.1054003,2380
1749980914.1115308,2055
1749980914.111675,1713
1749980914.1117618,1433
1749980914.1444142,1252
1749980914.1445575,1313
1749980914.1446617,1672
1749980914.1465688,2168
1749980914.1578016,2516
1749980914.1578813,2599
1749980914.1579552,2430
1749980914.1580286,2117
1749980914.1581016,1769
1749980914.1581728,1475
1749980914.1582446,1268
1749980914.1583612,1279
1749980914.1584334,1590
1749980914.1585057,2082
1749980914.1586175,2468
1749980914.158691,2600
1749980914.1587632,2473
1749980914.158835,2181
1749980914.1589062,1832
1749980914.1589763,1525
1749980914.1813605,1295
1749980914.1821215,1258
1749980914.1824973,1522
1749980914.207223,2004
1749980914.2076526,2424
1749980914.2451174,2598
1749980914.2674336,2508
1749980914.2707298,2235
1749980914.2712364,1890
1749980914.2717874,1573
1749980914.2722769,1326
1749980914.2729306,1241
1749980914.2735436,1449
1749980914.275642,1907
1749980914.27862,2358
1749980914.2789624,2581
1749980914.2792945,2538
1749980914.2796247,2289
1749980914.2872694,1948
1749980914.3250751,1620
1749980914.3275754,1362
1749980914.3276575,1243
1749980914.3277292,1405
1749980914.3278,1836
1749980914.327872,2307
1749980914.3279433,2570
1749980914.3280144,2568
1749980914.3280845,2340
1749980914.328155,2001
1749980914.3282259,1658
1749980914.3283348,1383
1749980914.3284066,1230
1749980914.3284774,1341
1749980914.3285484,1739
1749980914.328619,2230
1749980914.3287463,2543
1749980914.3288176,2591
1749980914.3288884,2398
1749980914.3289597,2076
1749980914.3290384,1730
1749980914.329114,1443
1749980914.3291907,1255
1749980914.3304508,1306
1749980914.3307421,1658
1749980914.3309906,2158
1749980914.331415,2517
1749980914.3374841,2610
1749980914.3375719,2445
1749980914.3376517,2129
1749980914.3377304,1778
1749980914.3378086,1486
1749980914.3378866,1279
1749980914.3379638,1283
1749980914.338042,1586
1749980914.3381207,2080
1749980914.3381994,2478
1749980914.338288,2621
1749980914.344213,2497
1749980914.344296,2202
1749980914.3443902,1852
1749980914.3444688,1550
1749980914.3445468,1324
1749980914.3446243,1279
1749980914.3447018,1532
1749980914.3744226,2011
1749980914.400561,2442
1749980914.401074,2630
1749980914.4011812,2544
1749980914.401999,2264
1749980914.404172,1910
1749980914.4042833,1594
1749980914.4047854,1355
1749980914.4048977,1275
1749980914.405052,1481
1749980914.4052126,1935
1749980914.4052854,2388
1749980914.4053578,2616
1749980914.4054286,2575
1749980914.4054995,2324
1749980914.4055698,1981
1749980914.4056432,1653
1749980914.4057145,1397
1749980914.4057846,1273
1749980914.4058554,1425
1749980914.4059265,1850
1749980914.405997,2325
1749980914.4060786,2599
1749980914.4061499,2604
1749980914.4062202,2379
1749980914.406291,2043
1749980914.4063613,1704
1749980914.4064322,1434
1749980914.406503,1278
1749980914.406573,1379
1749980914.406644,1766
1749980914.4067147,2255
1749980914.4067855,2572
1749980914.4068563,2623
1749980914.4069266,2428
1749980914.4069974,2100
1749980914.407068,1752
1749980914.4071383,1468
1749980914.4072087,1284
1749980914.4072785,1335
1749980914.407349,1679
1749980914.4074194,2170
1749980914.4074895,2525
1749980914.40756,2620
1749980914.4076304,2459
1749980914.407701,2148
1749980914.4077723,1799
1749980914.4078434,1508
1749980914.407914,1303
1749980914.407984,1306
1749980914.40806,1605
1749980914.4081306,2096
1749980914.4082007,2495
1749980914.408286,2641
1749980914.4083607,2521
1749980914.4084327,2224
1749980914.4085042,1868
1749980914.4085763,1559
1749980914.4086478,1331
1749980914.4087207,1286
1749980914.4087927,1539
1749980914.408865,2019
1749980914.408936,2451
1749980914.4090064,2639
1749980914.409077,2554
1749980914.409147,2276
1749980914.409217,1925
1749980914.4092875,1608
1749980914.4093575,1364
1749980914.4094276,1273
1749980914.4094975,1470
1749980914.4095678,1924
1749980914.4096384,2386
1749980914.4097085,2622
1749980914.4097788,2585
1749980914.409849,2331
1749980914.4099193,1986
1749980914.4099958,1659
1749980914.4100664,1405
1749980914.410137,1280
1749980914.410207,1423
1749980914.4102783,1837
1749980914.4103525,2309
1749980914.4104242,2586
1749980914.4104953,2597
1749980914.410566,2374
1749980914.4106371,2034
1749980914.4107072,1688
1749980914.4107778,1413
1749980914.410848,1255
1749980914.4109192,1353
1749980914.4109898,1735
1749980914.4110599,2219
1749980914.4111304,2533
1749980914.4112005,2585
1749980914.4112713,2393
1749980914.411342,2069
1749980914.4114144,1721
1749980914.4114897,1439
1749980914.4115653,1257
1749980914.412263,1309
1749980914.4123492,1654
1749980914.4124222,2148
1749980914.4124935,2508
1749980914.4125662,2609
1749980914.4126375,2454
1749980914.4127088,2146
1749980914.4127798,1793
1749980914.4128506,1496
1749980914.4129226,1286
1749980914.4129934,1287
1749980914.413063,1587
1749980914.4131336,2079
1749980914.413251,2480
1749980914.4133224,2627
1749980914.4133935,2508
1749980914.4610643,2216
1749980914.4615805,1863
1749980914.461734,1555
1749980914.4631572,1326
1749980914.463251,1277
1749980914.4633286,1523
1749980914.4634278,1997
1749980914.4635067,2429
1749980914.4635835,2622
1749980914.4636605,2547
1749980914.463738,2275
1749980914.4638329,1923
1749980914.46391,1600
1749980914.4639869,1354
1749980914.4640644,1265
1749980914.4641407,1463
1749980914.4642165,1915
1749980914.4643102,2375
1749980914.4643874,2614
1749980914.464463,2584
1749980914.464537,2335
1749980914.4646778,1985
1749980914.4647517,1648
1749980914.4648235,1386
1749980914.4648957,1260
1749980914.464985,1408
1749980914.465377,1829
1749980914.4654613,2307
1749980914.4655557,2588
1749980914.4656308,2601
1749980914.4657066,2380
1749980914.465784,2045
1749980914.4658613,1704
1749980914.4659388,1431
1749980914.4660296,1270
1749980914.4661064,1364
1749980914.4661827,1745
1749980914.4662595,2238
1749980914.4663363,2563
1749980914.4664254,2621
1749980914.466503,2428
1749980914.4665892,2101
1749980914.466669,1749
1749980914.4667487,1459
1749980914.46687,1269
1749980914.466948,1314
1749980914.4670353,1661
1749980914.4671118,2166
1749980914.4671896,2536
1749980914.4672635,2639
1749980914.467337,2479
1749980914.46741,2165
1749980914.4674833,1811
1749980914.46756,1511
1749980914.4676342,1296
1749980914.467708,1285
1749980914.4677813,1575
1749980914.4678545,2064
1749980914.4679277,2465
1749980914.4680014,2610
1749980914.468075,2490
1749980914.4681485,2199
1749980914.468225,1850
1749980914.4683087,1542
1749980914.4983938,1311
1749980914.4985309,1256
1749980914.4986072,1500
1749980914.4986808,1977
1749980914.498753,2418
1749980914.498825,2615
1749980914.4992418,2540
1749980914.499312,2267
1749980914.4993813,1917
1749980914.4994495,1594
1749980914.4995203,1341
1749980914.499591,1239
1749980914.499661,1432
1749980914.4997323,1890
1749980914.4998071,2361
1749980914.4998784,2597
1749980914.4999502,2554
1749980914.5001867,2299
1749980914.5002615,1963
