1749981458.8805828,1785
1749981458.9378226,2249
1749981458.9383266,2490
1749981458.9388735,2453
1749981458.9393692,2195
1749981458.9400735,1849
1749981458.940582,1528
1749981458.9409878,1282
1749981458.9425251,1160
1749981458.943511,1301
1749981458.9438434,1711
1749981458.9441712,2188
1749981458.9444978,2475
1749981458.9449358,2490
1749981458.9454806,2267
1749981458.94602,1931
1749981458.9471703,1596
1749981458.9474952,1331
1749981458.9478438,1179
1749981458.9481707,1276
1749981458.9485135,1654
1749981458.9488425,2138
1749981458.9491694,2455
1749981458.9495718,2503
1749981458.9499364,2304
1749981458.950294,1977
1749981458.9506779,1636
1749981458.9512568,1364
1749981458.9520035,1188
1749981458.9523704,1230
1749981458.95275,1549
1749981458.953095,2018
1749981458.95364,2371
1749981458.9538937,2480
1749981458.9541101,2330
1749981458.9547808,2016
1749981458.9551344,1655
1749981458.9557216,1363
1749981458.9560096,1180
1749981458.9568226,1205
1749981458.9576643,1496
1749981458.9581697,1951
1749981458.958626,2322
1749981458.9590416,2467
1749981458.9593716,2361
1749981458.9596748,2069
1749981458.9601068,1701
1749981458.9604278,1385
1749981458.9607058,1178
1749981458.9609926,1167
1749981458.9614055,1424
1749981458.9618125,1870
1749981458.9621787,2270
1749981458.9625115,2459
1749981458.9628446,2402
1749981458.9633076,2141
1749981458.9637773,1776
1749981458.9643757,1437
1749981458.9646764,1201
1749981458.9649813,1148
1749981458.9652917,1368
1749981458.9655719,1805
1749981458.966049,2235
1749981458.9663942,2466
1749981458.966792,2450
1749981458.9671721,2215
1749981458.9674985,1862
1749981458.9678316,1513
1749981458.9686997,1257
1749981458.9690425,1154
1749981458.9693537,1312
1749981458.9696472,1710
1749981458.9699156,2157
1749981458.9702926,2435
1749981458.9706419,2472
1749981458.9709222,2270
1749981458.9712446,1925
1749981458.9715464,1562
1749981458.9718456,1289
1749981458.9721706,1161
1749981458.9724884,1283
1749981458.9728305,1656
1749981458.97314,2114
1749981458.9732373,2421
1749981458.9733126,2490
1749981458.9737482,2312
1749981458.9740644,1981
1749981458.9743965,1612
1749981458.9747753,1323
1749981458.975215,1162
1749981458.9756377,1237
1749981458.9759552,1576
1749981458.9763322,2044
1749981458.976826,2393
1749981458.9771242,2509
1749981458.9774685,2374
1749981458.977772,2065
1749981458.9780843,1694
1749981458.9791121,1387
1749981458.9795134,1199
1749981458.9798887,1231
1749981458.9802365,1533
1749981458.9805994,1998
1749981458.980936,2376
1749981458.9813013,2530
1749981458.9816587,2432
1749981458.9820352,2143
1749981458.9824095,1770
1749981458.98294,1441
1749981458.983309,1223
1749981458.9836135,1206
1749981458.9839592,1467
1749981458.9842343,1924
1749981458.9845784,2334
1749981458.9849203,2526
1749981458.9852784,2465
1749981458.9855824,2199
1749981458.9859302,1834
1749981458.986227,1497
1749981458.9865174,1260
1749981458.9868088,1198
1749981458.9872904,1409
1749981458.9876122,1845
1749981458.987944,2284
1749981458.9882624,2525
1749981458.9885476,2511
1749981458.9888756,2271
1749981458.989221,1909
1749981458.991381,1556
1749981458.9917312,1298
1749981458.9920938,1197
1749981458.9923596,1358
1749981458.992722,1756
1749981458.993443,2199
1749981458.99378,2468
1749981458.994095,2494
1749981458.9945695,2287
1749981458.9950113,1943
1749981458.9953368,1584
1749981458.9956634,1313
1749981458.996017,1185
1749981458.9963386,1311
1749981458.9966996,1690
1749981458.997059,2153
1749981458.9975595,2461
1749981458.9979236,2527
1749981458.9982622,2350
1749981458.9986107,2022
1749981458.998923,1656
1749981458.999274,1367
1749981459.0008194,1204
1749981459.0012138,1278
1749981459.0020945,1619
1749981459.0023682,2088
1749981459.0026453,2432
1749981459.0028608,2540
1749981459.0031745,2396
1749981459.0034006,2084
1749981459.0036426,1714
1749981459.003915,1405
1749981459.0041325,1210
1749981459.0043745,1237
1749981459.0046616,1543
1749981459.0049222,2016
1749981459.0054061,2397
1749981459.0056849,2543
1749981459.0059175,2434
1749981459.006147,2146
1749981459.0063653,1789
1749981459.0066085,1472
1749981459.0068138,1246
1749981459.0070453,1219
1749981459.0072489,1492
1749981459.0077012,1982
1749981459.0080025,2418
1749981459.0082972,2604
1749981459.0086012,2517
1749981459.0088818,2245
1749981459.0091615,1903
1749981459.0094945,1583
1749981459.0098374,1322
1749981459.0101566,1226
1749981459.0104704,1451
1749981459.010779,1961
1749981459.011085,2469
1749981459.011428,2705
1749981459.0118296,2628
1749981459.012989,2350
1749981459.0132892,2022
1749981459.013568,1722
1749981459.0138981,1457
1749981459.014233,1288
1749981459.0145555,1405
1749981459.0148633,1843
1749981459.0152626,2366
1749981459.0155666,2668
1749981459.015878,2655
1749981459.0162032,2403
1749981459.0165212,2072
1749981459.0168374,1760
1749981459.0171926,1495
1749981459.0174901,1308
1749981459.0178654,1368
1749981459.0181181,1739
1749981459.018333,2245
1749981459.018535,2579
1749981459.0187986,2622
1749981459.0190876,2403
1749981459.019348,2069
1749981459.0195656,1735
1749981459.0198395,1469
1749981459.0201664,1291
1749981459.020463,1338
1749981459.0207775,1680
1749981459.0210361,2177
1749981459.0213013,2536
1749981459.021596,2618
1749981459.0219014,2434
1749981459.0220134,2110
1749981459.0220838,1766
1749981459.022359,1486
1749981459.02268,1288
1749981459.0229678,1292
1749981459.0240002,1590
1749981459.024239,2081
1749981459.0244472,2479
1749981459.0246732,2614
1749981459.024992,2476
1749981459.0252333,2173
1749981459.025503,1828
1749981459.0257585,1534
1749981459.025974,1313
1749981459.0262299,1265
1749981459.0265212,1509
1749981459.0267627,1982
1749981459.0270016,2415
1749981459.0273364,2602
1749981459.0276453,2510
1749981459.0279253,2225
1749981459.0281615,1878
1749981459.0283825,1572
1749981459.0287044,1340
1749981459.0289683,1259
1749981459.0291758,1461
1749981459.0294154,1913
1749981459.0296695,2370
1749981459.029985,2599
1749981459.0303135,2549
1749981459.030586,2286
1749981459.0308359,1939
1749981459.0310755,1616
1749981459.0312977,1363
1749981459.0315056,1240
1749981459.0318024,1390
1749981459.032031,1813
1749981459.032287,2292
1749981459.0326014,2565
1749981459.032889,2558
1749981459.0331023,2320
1749981459.0332808,1984
1749981459.0335252,1657
1749981459.0337431,1398
1749981459.0339353,1244
1749981459.0357842,1339
1749981459.036151,1720
1749981459.0367463,2208
1749981459.037005,2524
1749981459.0371737,2566
1749981459.0375097,2359
1749981459.0377178,2032
1749981459.0380592,1695
1749981459.038326,1421
1749981459.038549,1237
1749981459.0387707,1281
1749981459.0390239,1619
1749981459.0392506,2111
1749981459.0395112,2469
1749981459.0397258,2556
1749981459.039937,2380
1749981459.0401998,2061
1749981459.0404186,1716
1749981459.0406604,1432
1749981459.0409157,1232
1749981459.0411696,1235
1749981459.041341,1533
1749981459.041531,2022
1749981459.0419142,2417
1749981459.0421827,2553
1749981459.0423365,2418
1749981459.0426085,2117
1749981459.0429182,1770
1749981459.043083,1471
1749981459.0433135,1250
1749981459.0435517,1209
1749981459.0438147,1463
1749981459.044029,1943
1749981459.0442815,2377
1749981459.0445569,2564
1749981459.0449,2473
1749981459.0451553,2192
1749981459.045392,1844
1749981459.0457423,1534
1749981459.0461648,1299
1749981459.0464303,1216
1749981459.0466833,1412
1749981459.0477767,1853
1749981459.048073,2301
1749981459.0484118,2531
1749981459.0487087,2492
1749981459.048943,2239
1749981459.0492027,1894
1749981459.0494673,1568
1749981459.0497367,1320
1749981459.049949,1209
1749981459.0502093,1369
1749981459.0504646,1789
1749981459.0507412,2256
1749981459.0509424,2524
1749981459.0512278,2522
1749981459.0514581,2290
1749981459.0517182,1950
1749981459.0519357,1612
1749981459.052217,1349
1749981459.0524378,1204
1749981459.0526571,1314
1749981459.0529158,1701
1749981459.0531409,2185
1749981459.053397,2497
1749981459.053606,2540
1749981459.0538933,2337
1749981459.0541215,2011
1749981459.054399,1670
1749981459.0546572,1397
1749981459.0549035,1222
1749981459.0552342,1277
1749981459.0555081,1620
1749981459.0557396,2110
1749981459.055956,2467
1749981459.0562,2560
1749981459.056373,2390
1749981459.0566099,2069
1749981459.0568888,1715
1749981459.057157,1426
1749981459.0574205,1231
1749981459.0576947,1244
1749981459.0587156,1540
1749981459.0591142,2018
1749981459.0593798,2407
1749981459.059634,2550
1749981459.0599217,2430
1749981459.060154,2134
1749981459.0604377,1776
1749981459.0606692,1464
1749981459.060879,1240
1749981459.0611365,1205
1749981459.0613813,1460
1749981459.061606,1929
1749981459.0618584,2347
1749981459.0621462,2525
1749981459.0624285,2434
1749981459.063205,2153
1749981459.0634692,1803
1749981459.0637853,1489
1749981459.0639973,1255
1749981459.0642545,1180
1749981459.064558,1386
1749981459.0647829,1836
1749981459.0649865,2287
1749981459.0652587,2515
1749981459.065483,2471
1749981459.0657434,2215
1749981459.0660224,1872
1749981459.0662937,1550
1749981459.0682335,1300
1749981459.0684533,1182
1749981459.0687947,1333
1749981459.0705183,1751
1749981459.070976,2225
1749981459.0713413,2499
1749981459.0715158,2498
1749981459.0717044,2262
1749981459.0718513,1921
1749981459.0721328,1588
1749981459.0723612,1331
1749981459.0725865,1186
1749981459.0728347,1289
1749981459.0730562,1666
1749981459.0732906,2147
1749981459.073518,2462
1749981459.0737402,2511
1749981459.0739646,2308
1749981459.0741692,1977
1749981459.0744162,1633
1749981459.0747178,1361
1749981459.0750368,1192
1749981459.0752037,1252
1749981459.0754514,1599
1749981459.0757399,2093
1749981459.0759356,2455
1749981459.0761962,2551
1749981459.0763822,2380
1749981459.077097,2056
1749981459.0773976,1704
1749981459.0776346,1421
1749981459.0778267,1231
1749981459.0780215,1235
1749981459.0783212,1509
1749981459.078559,1962
1749981459.0788121,2341
1749981459.0790596,2492
1749981459.0793197,2386
1749981459.0795727,2093
1749981459.079795,1728
1749981459.080059,1415
1749981459.0802927,1208
1749981459.080685,1196
1749981459.0809798,1457
1749981459.0812037,1909
1749981459.0833523,2310
1749981459.0845034,2493
1749981459.0856485,2425
1749981459.0865433,2155
1749981459.087493,1792
1749981459.088481,1463
1749981459.0895562,1237
1749981459.0905042,1190
1749981459.091684,1411
1749981459.0932374,1844
1749981459.0943923,2264
1749981459.095374,2483
1749981459.0961778,2456
1749981459.0973215,2213
1749981459.0984216,1856
1749981459.1015794,1511
1749981459.1026914,1260
1749981459.1028726,1168
1749981459.1033776,1341
1749981459.1036162,1750
1749981459.1038651,2196
1749981459.1041012,2459
1749981459.1043296,2475
1749981459.1052587,2261
1749981459.1054986,1918
1749981459.1057415,1564
1749981459.1060038,1296
1749981459.106238,1167
1749981459.106503,1292
1749981459.10677,1673
1749981459.1069374,2138
1749981459.1070874,2445
1749981459.1072237,2504
1749981459.1074324,2319
1749981459.107569,1988
1749981459.1077068,1627
1749981459.1078975,1343
1749981459.1080458,1182
1749981459.108182,1253
1749981459.108325,1589
1749981459.1084626,2054
1749981459.1085992,2397
1749981459.108762,2503
1749981459.1088986,2354
1749981459.1090345,2035
1749981459.10917,1665
1749981459.109306,1369
1749981459.1094432,1191
1749981459.1095793,1227
1749981459.1097152,1525
1749981459.109869,1980
1749981459.1100056,2351
1749981459.1101627,2502
1749981459.1102986,2404
1749981459.1104434,2112
1749981459.1105537,1737
1749981459.1106942,1413
1749981459.1108334,1202
1749981459.1109319,1196
1749981459.111084,1463
1749981459.11122,1916
1749981459.1114938,2317
1749981459.1116495,2502
1749981459.1118546,2438
1749981459.1120625,2170
1749981459.1122782,1805
1749981459.1124895,1472
1749981459.1126802,1241
1749981459.1128738,1188
1749981459.1130736,1408
1749981459.1133008,1842
1749981459.115339,2268
1749981459.1157887,2492
1749981459.1161082,2471
1749981459.116502,2235
1749981459.1166685,1887
1749981459.1168473,1542
1749981459.1170278,1283
1749981459.1172433,1183
1749981459.1174233,1362
1749981459.1175969,1790
1749981459.117762,2252
1749981459.1179442,2518
1749981459.1181526,2524
1749981459.1183283,2303
1749981459.1184995,1965
1749981459.1186583,1620
1749981459.1188312,1352
1749981459.1189096,1213
1749981459.1190748,1330
1749981459.1192644,1716
1749981459.1194298,2191
1749981459.1196177,2501
1749981459.1197984,2556
1749981459.11998,2366
1749981459.120167,2037
1749981459.1203396,1682
1749981459.1205056,1397
1749981459.120665,1229
1749981459.1208303,1301
1749981459.1209874,1650
1749981459.1211443,2131
1749981459.1213071,2477
1749981459.121508,2572
1749981459.1216943,2413
1749981459.1218734,2097
1749981459.122053,1737
1749981459.122229,1437
1749981459.122405,1242
1749981459.122581,1265
1749981459.122757,1573
1749981459.1228793,2053
1749981459.123019,2438
1749981459.1232023,2576
1749981459.1233804,2450
1749981459.123558,2146
1749981459.123755,1783
1749981459.123932,1475
1749981459.12414,1265
1749981459.1243253,1243
1749981459.1245217,1498
1749981459.1247077,1957
1749981459.1249034,2372
1749981459.1250834,2565
1749981459.1252623,2496
1749981459.1254625,2225
1749981459.125657,1866
1749981459.1258469,1542
1749981459.126031,1310
1749981459.1262279,1246
1749981459.1264043,1452
1749981459.1275604,1884
1749981459.1277459,2315
1749981459.1279237,2541
1749981459.12811,2509
1749981459.1282785,2256
1749981459.1284692,1896
1749981459.1286545,1555
1749981459.1288316,1309
1749981459.1290202,1217
1749981459.1291986,1387
1749981459.1293898,1795
1749981459.129588,2241
1749981459.1297772,2503
1749981459.129962,2515
1749981459.130619,2298
1749981459.131466,1957
1749981459.131729,1610
1749981459.1328301,1348
1749981459.1341414,1221
1749981459.1342955,1344
1749981459.1344945,1722
1749981459.1349778,2181
1749981459.1351311,2482
1749981459.1353056,2538
1749981459.1356177,2353
1749981459.1357708,2021
1749981459.1359339,1657
1749981459.1360867,1368
1749981459.1363,1207
1749981459.1365201,1289
1749981459.1366794,1643
1749981459.1368356,2119
1749981459.159151,2460
1749981459.232192,2557
1749981459.3060758,2403
1749981459.3268094,2087
1749981459.3528793,1720
1749981459.3735418,1418
1749981459.4002664,1226
1749981459.4864168,1252
1749981459.5112278,1551
1749981459.5929718,2013
1749981459.6373923,2386
1749981459.696552,2533
1749981459.7614813,2429
1749981459.8156393,2140
1749981459.891436,1774
1749981459.9863443,1459
1749981460.0136888,1253
1749981460.0818493,1246
1749981460.175659,1508
1749981460.1761672,1955
1749981460.176286,2349
1749981460.176396,2533
1749981460.1765044,2471
1749981460.1766117,2207
1749981460.1769292,1842
1749981460.1772094,1505
1749981460.1773794,1273
1749981460.1779852,1224
1749981460.1780555,1447
1749981460.1781206,1880
1749981460.1781902,2301
1749981460.1782718,2520
1749981460.1783369,2493
1749981460.1784072,2251
1749981460.1784716,1897
1749981460.1785355,1558
1749981460.1785994,1314
1749981460.1786635,1226
1749981460.178727,1397
1749981460.1787903,1802
1749981460.1788511,2244
1749981460.1790538,2510
1749981460.179125,2531
1749981460.1792588,2319
1749981460.1793256,1974
1749981460.1793973,1620
1749981460.180176,1354
1749981460.1802485,1230
1749981460.180314,1355
1749981460.180382,1730
1749981460.1804514,2185
1749981460.1805167,2484
1749981460.1805818,2543
1749981460.1991343,2361
1749981460.1992679,2032
1749981460.1993356,1672
1749981460.199402,1390
1749981460.1994686,1234
1749981460.199535,1311
1749981460.199601,1650
1749981460.1996832,2109
1749981460.19975,2444
1749981460.1998158,2545
1749981460.1998818,2399
1749981460.1999476,2084
1749981460.2000134,1712
1749981460.2000926,1408
1749981460.2001588,1224
1749981460.2002234,1263
1749981460.2002892,1571
1749981460.200359,2031
1749981460.2004235,2396
1749981460.200514,2536
1749981460.2017782,2431
1749981460.2019224,2145
1749981460.2020283,1783
1749981460.2149084,1466
1749981460.293149,1254
1749981460.2937121,1242
1749981460.2937953,1505
1749981460.294046,1958
1749981460.2960825,2360
1749981460.2962053,2547
1749981460.2962756,2481
1749981460.2963448,2212
1749981460.2964377,1847
1749981460.2966497,1514
1749981460.2968295,1286
1749981460.2969954,1236
1749981460.2973998,1455
1749981460.2977474,1886
1749981460.2983809,2307
1749981460.298456,2530
1749981460.2985303,2507
1749981460.3012,2265
1749981460.3012772,1908
1749981460.3013458,1564
1749981460.3014514,1317
1749981460.3015187,1231
1749981460.301595,1403
1749981460.3016634,1805
1749981460.301732,2242
1749981460.3018017,2506
1749981460.3018665,2531
1749981460.3019345,2322
1749981460.3019998,1973
1749981460.3020668,1608
1749981460.302132,1337
1749981460.3022,1217
1749981460.3022656,1351
1749981460.3023314,1729
1749981460.3023963,2180
1749981460.3024647,2474
1749981460.3025305,2533
1749981460.3025992,2353
1749981460.302664,2024
1749981460.3027287,1658
1749981460.3027937,1370
1749981460.3028553,1212
1749981460.302913,1295
1749981460.3029788,1640
1749981460.315058,2103
1749981460.3493943,2439
1749981460.3824272,2540
1749981460.3827195,2393
1749981460.382794,2078
1749981460.3828688,1705
1749981460.3831122,1396
1749981460.3831873,1205
1749981460.3832889,1236
1749981460.383361,1539
1749981460.3834352,2000
1749981460.394555,2367
1749981460.394665,2507
1749981460.3947315,2399
1749981460.3947978,2111
1749981460.3948581,1750
1749981460.3949387,1439
1749981460.3950057,1235
1749981460.3950715,1229
1749981460.3951368,1493
1749981460.3952022,1946
1749981460.3952699,2347
1749981460.3953362,2534
1749981460.3954046,2469
1749981460.3954709,2196
1749981460.395542,1823
1749981460.395609,1481
1749981460.3956747,1246
1749981460.3957407,1196
1749981460.3958058,1420
1749981460.3958712,1855
1749981460.3959432,2279
1749981460.412301,2501
1749981460.4502962,2477
1749981460.4858484,2234
1749981460.5424793,1876
1749981460.542592,1530
1749981460.5426686,1280
1749981460.5427446,1192
1749981460.5428164,1369
1749981460.5428922,1781
1749981460.5429683,2230
1749981460.5430515,2498
1749981460.5431273,2520
1749981460.5432029,2306
1749981460.5433993,1958
1749981460.543475,1596
1749981460.5435498,1324
1749981460.5436242,1198
1749981460.5436993,1330
1749981460.543774,1716
1749981460.543848,2180
1749981460.5439227,2484
1749981460.5439973,2543
1749981460.5440717,2359
1749981460.5441465,2026
1749981460.5442212,1661
1749981460.5442953,1376
1749981460.5443702,1221
1749981460.5444434,1302
1749981460.5445132,1644
1749981460.544585,2106
1749981460.544656,2445
1749981460.5447273,2553
1749981460.5447984,2410
1749981460.54487,2092
1749981460.5449536,1711
1749981460.5450351,1401
1749981460.5451071,1219
1749981460.5451794,1267
1749981460.5452518,1583
1749981460.5453238,2048
1749981460.5453959,2415
1749981460.5454676,2559
1749981460.5455396,2455
1749981460.545612,2163
1749981460.5456839,1788
1749981460.5457559,1461
1749981460.5458279,1246
1749981460.5458996,1237
1749981460.5459716,1503
1749981460.5460436,1954
1749981460.5461156,2352
1749981460.5461872,2539
1749981460.5462592,2479
1749981460.546331,2215
1749981460.546403,1848
1749981460.5464745,1509
1749981460.5465467,1275
1749981460.5466185,1227
1749981460.5466902,1452
1749981460.5467622,1889
1749981460.5468345,2312
1749981460.5469058,2535
1749981460.5469806,2512
1749981460.5470574,2270
1749981460.5471327,1913
1749981460.5472076,1568
1749981460.547283,1321
1749981460.547358,1235
1749981460.5531008,1411
1749981460.5531766,1818
1749981460.553244,2260
1749981460.5533102,2521
1749981460.553376,2538
1749981460.5588791,2321
1749981460.558955,1972
1749981460.5590217,1612
1749981460.5590904,1343
1749981460.5591557,1219
1749981460.5592234,1348
1749981460.5592914,1728
1749981460.5593562,2185
1749981460.5594215,2486
1749981460.5594862,2545
1749981460.5595543,2360
1749981460.5596194,2024
1749981460.5596852,1655
1749981460.5597503,1366
1749981460.5598187,1208
1749981460.559884,1291
1749981460.559952,1638
1749981460.560021,2104
1749981460.5600896,2442
1749981460.5601585,2545
1749981460.5602272,2399
1749981460.5602956,2084
1749981460.5603645,1712
1749981460.5604336,1405
1749981460.5605028,1217
1749981460.5605714,1253
1749981460.5606406,1559
1749981460.5607135,2022
1749981460.5607827,2393
1749981460.560853,2537
1749981460.5609229,2427
1749981460.5609934,2127
1749981460.5610635,1749
1749981460.5611336,1426
1749981460.5612032,1218
1749981460.5612733,1218
1749981460.5613432,1491
1749981460.5614133,1949
1749981460.5614836,2351
1749981460.5615633,2537
1749981460.5616364,2471
1749981460.561706,2200
1749981460.5617754,1830
1749981460.5618448,1490
1749981460.5619147,1255
1749981460.561984,1205
1749981460.5620537,1432
1749981460.562123,1876
1749981460.5621934,2308
1749981460.5622628,2535
1749981460.562332,2510
1749981460.5624015,2263
1749981460.562471,1900
1749981460.5625408,1548
1749981460.5626101,1293
1749981460.5626876,1205
1749981460.5627575,1389
1749981460.5628266,1812
1749981460.5628958,2266
1749981460.5629659,2531
1749981460.5630355,2545
1749981460.609881,2324
1749981460.6099687,1975
1749981460.610049,1616
1749981460.6101258,1344
1749981460.6102047,1216
1749981460.6102953,1348
1749981460.6103792,1739
1749981460.6104684,2209
1749981460.6105516,2515
1749981460.6106253,2570
1749981460.610702,2378
1749981460.6107779,2038
1749981460.6108553,1669
1749981460.610936,1381
1749981460.6110134,1222
1749981460.619902,1305
1749981460.6205962,1655
1749981460.6216114,2124
1749981460.621902,2462
1749981460.6219728,2561
1749981460.622039,2408
1749981460.622107,2088
1749981460.6221745,1715
1749981460.6223197,1410
1749981460.6226466,1222
1749981460.6229753,1258
1749981460.6230721,1568
1749981460.6231415,2036
1749981460.6232085,2407
1749981460.623277,2546
1749981460.6242275,2432
1749981460.6248813,2135
1749981460.6254668,1765
1749981460.6257079,1447
1749981460.625775,1236
1749981460.6258419,1229
1749981460.6259084,1502
1749981460.6259837,1967
1749981460.6295407,2374
1749981460.6296158,2556
1749981460.629684,2480
1749981460.6297505,2202
1749981460.6298163,1836
1749981460.629883,1505
1749981460.6299515,1272
1749981460.6300173,1219
1749981460.6300833,1441
1749981460.6329324,1884
1749981460.6330888,2315
1749981460.633359,2536
1749981460.633503,2501
1749981460.6335714,2251
1749981460.6336412,1895
1749981460.6337085,1554
1749981460.6337762,1302
1749981460.6338453,1206
1749981460.6339128,1385
1749981460.6339786,1812
1749981460.6340506,2275
1749981460.6341186,2541
1749981460.634179,2543
1749981460.6342447,2311
1749981460.6343107,1962
1749981460.6343799,1617
1749981460.6344454,1356
1749981460.634512,1225
1749981460.634579,1343
1749981460.6346476,1719
1749981460.6347148,2181
1749981460.6347835,2484
1749981460.634846,2538
1749981460.6372943,2346
1749981460.6374416,2011
1749981460.63751,1652
1749981460.6375768,1370
1749981460.650422,1213
1749981460.6505153,1300
1749981460.6505947,1664
1749981460.6738117,2150
1749981460.6739092,2493
1749981460.674218,2580
1749981460.6743047,2411
1749981460.6743882,2090
1749981460.6744704,1730
1749981460.674553,1434
1749981460.6765726,1239
1749981460.6766546,1263
1749981460.6767342,1571
1749981460.6768029,2050
1749981460.6769,2432
1749981460.6770494,2569
1749981460.6771255,2443
1749981460.6771958,2142
1749981460.6789901,1784
1749981460.6790855,1479
1749981460.6791542,1268
1749981460.6792195,1247
1749981460.6792862,1503
1749981460.6793509,1958
1749981460.6794155,2359
1749981460.6794825,2535
1749981460.6795526,2451
1749981460.679617,2172
1749981460.679684,1812
1749981460.6797488,1489
1749981460.6798136,1260
1749981460.6798785,1212
1749981460.6799426,1448
1749981460.6800075,1913
1749981460.6800716,2359
1749981460.6801362,2577
1749981460.6802008,2525
1749981460.6802652,2262
1749981460.680333,1910
1749981460.6804,1583
1749981460.680475,1336
1749981460.680551,1232
1749981460.6806238,1399
1749981460.680706,1825
1749981460.6807816,2293
1749981460.6808577,2562
1749981460.6809337,2562
1749981460.6823468,2329
1749981460.6885958,1987
1749981460.688975,1648
1749981460.6890354,1382
1749981460.6893435,1239
1749981460.689735,1353
1749981460.690129,1744
1749981460.6910455,2227
1749981460.7424214,2534
1749981460.8058102,2569
1749981460.820101,2356
1749981460.8968065,2020
1749981460.9405143,1675
1749981460.9988172,1403
1749981460.998915,1235
1749981461.0005648,1299
1749981461.0006773,1647
1749981461.0007555,2130
1749981461.0008323,2475
1749981461.0009055,2558
1749981461.0009718,2382
1749981461.0010395,2061
1749981461.0011723,1713
1749981461.001249,1432
1749981461.0013227,1245
1749981461.0013947,1261
1749981461.001468,1553
1749981461.0015423,2017
1749981461.001635,2388
1749981461.0017066,2520
1749981461.0017815,2391
1749981461.0114503,2091
1749981461.0246415,1734
1749981461.0256042,1431
1749981461.0267313,1222
1749981461.0268657,1211
1749981461.0270286,1494
1749981461.0276897,1982
1749981461.0278394,2400
1749981461.0279598,2563
1749981461.0280786,2452
1749981461.0281966,2162
1749981461.028344,1818
1749981461.033265,1515
1749981461.0335944,1278
1749981461.0340972,1198
1749981461.0347538,1422
1749981461.0348759,1926
1749981461.0364177,2457
1749981461.0365458,2764
1749981461.0366514,2768
1749981461.0367565,2523
1749981461.0368612,2162
1749981461.0369668,1805
1749981461.0372133,1511
1749981461.0373254,1352
1749981461.0374312,1476
1749981461.037664,1879
1749981461.0381298,2341
1749981461.0382524,2614
1749981461.0383599,2626
1749981461.0385497,2418
1749981461.055319,2106
1749981461.10682,1785
1749981461.186501,1510
1749981461.1866186,1335
1749981461.1867244,1414
1749981461.186829,1781
1749981461.186933,2254
1749981461.189427,2565
1749981461.189539,2617
1749981461.1899776,2426
1749981461.190086,2106
1749981461.19019,1760
1749981461.1902936,1469
1749981461.1903963,1276
1749981461.1904988,1325
1749981461.190603,1671
1749981461.1907065,2160
1749981461.1907787,2508
1749981461.1908484,2591
1749981461.1909187,2416
1749981461.1909885,2097
1749981461.1910582,1746
1749981461.1918635,1452
1749981461.1921005,1246
1749981461.192763,1259
1749981461.2537317,1573
1749981461.2617838,2072
1749981461.271092,2466
1749981461.300972,2595
1749981461.3166,2450
1749981461.325062,2137
1749981461.3255036,1777
1749981461.3258517,1469
1749981461.3261943,1247
1749981461.326521,1222
1749981461.339815,1497
1749981461.365369,1988
1749981461.3691952,2416
1749981461.3693392,2589
1749981461.3694694,2484
1749981461.3700583,2191
1749981461.3701894,1835
1749981461.3747025,1516
1749981461.3774757,1272
1749981461.3775644,1195
1749981461.377647,1413
1749981461.377727,1881
1749981461.377808,2340
1749981461.3778896,2562
1749981461.3937585,2501
1749981461.3938382,2227
1749981461.3939116,1871
1749981461.3939843,1540
1749981461.3940566,1285
1749981461.3941278,1176
1749981461.3942,1349
1749981461.3942728,1791
1749981461.3943543,2271
1749981461.3944263,2535
1749981461.3944983,2517
1749981461.3945708,2266
1749981461.395638,1914
1749981461.4028354,1572
1749981461.402923,1306
1749981461.4030035,1168
1749981461.4134853,1294
1749981461.413603,1698
1749981461.4137075,2187
1749981461.4139493,2493
1749981461.4146454,2531
1749981461.416117,2323
1749981461.4161932,1987
1749981461.4162679,1631
1749981461.418743,1339
1749981461.421541,1162
1749981461.4216406,1238
1749981461.4217148,1606
1749981461.4217894,2101
1749981461.4218664,2444
1749981461.421938,2521
1749981461.4220092,2343
1749981461.4220805,2023
1749981461.4221754,1667
1749981461.4630487,1369
1749981461.463195,1168
1749981461.4633157,1192
1749981461.4634333,1513
1749981461.463549,2007
1749981461.463663,2391
1749981461.4637775,2516
1749981461.4638925,2375
1749981461.4640071,2068
1749981461.4783633,1710
1749981461.4786608,1405
1749981461.4795947,1190
1749981461.4796786,1170
1749981461.4797616,1441
1749981461.4805198,1916
1749981461.4806035,2328
1749981461.4879534,2498
1749981461.5091515,2403
1749981461.5293152,2119
1749981461.529472,1763
1749981461.5296116,1442
1749981461.529908,1205
1749981461.5346174,1143
1749981461.5347276,1370
1749981461.534828,1833
1749981461.5354304,2278
1749981461.535536,2493
1749981461.5356364,2436
1749981461.535736,2169
1749981461.544353,1815
1749981461.5444922,1486
1749981461.5446653,1238
1749981461.5447874,1137
1749981461.5449617,1307
1749981461.583289,1728
1749981461.5838747,2183
1749981461.5846674,2438
1749981461.585422,2432
1749981461.600529,2200
1749981461.6035812,1855
1749981461.6036482,1509
1749981461.6037107,1241
1749981461.6037803,1110
1749981461.6038864,1248
1749981461.6123385,1659
1749981461.6136372,2143
1749981461.6137457,2441
1749981461.6138504,2474
1749981461.614614,2269
1749981461.6147172,1940
1749981461.614821,1595
1749981461.6149395,1319
1749981461.6150432,1152
1749981461.6151452,1227
1749981461.615248,1579
1749981461.6164832,2054
1749981461.616589,2386
1749981461.616691,2466
1749981461.6167939,2299
1749981461.616896,1983
1749981461.6169991,1623
1749981461.63973,1323
1749981461.6476097,1130
1749981461.6653922,1170
1749981461.6660104,1505
1749981461.6795897,2004
1749981461.679745,2390
1749981461.679853,2522
1749981461.6799579,2392
1749981461.680061,2090
1749981461.680164,1724
1749981461.713425,1406
1749981461.7349467,1187
1749981461.7352693,1176
1749981461.7392755,1456
1749981461.750187,1930
1749981461.7511668,2334
1749981461.751362,2497
1749981461.7516646,2402
1749981461.7519693,2124
1749981461.7522988,1772
1749981461.752756,1456
1749981461.7531552,1221
1749981461.7533615,1152
1749981461.7536592,1362
1749981461.7538688,1807
1749981461.7541168,2246
1749981461.7772567,2473
1749981461.7890425,2432
1749981461.7914057,2169
1749981461.792069,1802
1749981461.792273,1461
1749981461.7925088,1220
1749981461.7926564,1144
1749981461.7929277,1345
1749981461.793247,1786
1749981461.7934656,2245
1749981461.7937052,2497
1749981461.7943325,2489
1749981461.7954261,2256
1749981461.8413134,1909
1749981461.854811,1555
1749981461.8560822,1273
1749981461.8562858,1124
1749981461.8563998,1245
1749981461.862434,1643
1749981461.8625433,2124
1749981461.8626485,2429
1749981461.863772,2471
1749981461.8639479,2266
1749981461.8655376,1927
1749981461.869464,1573
1749981461.869542,1302
1749981461.8696141,1158
1749981461.8698134,1256
1749981461.869886,1620
1749981461.8699863,2091
1749981461.870058,2412
1749981461.8701308,2485
1749981461.8702016,2315
1749981461.8702724,1998
1749981461.8703434,1639
1749981461.8704145,1339
1749981461.8704855,1146
1749981461.870556,1179
1749981461.8706264,1499
1749981461.8706975,1988
1749981461.8707683,2378
1749981461.8708386,2527
1749981461.8709018,2411
1749981461.870965,2107
1749981461.8710322,1727
1749981461.871204,1399
1749981461.8712757,1185
1749981461.871347,1190
1749981461.8714187,1483
1749981461.8714898,1957
1749981461.8715703,2349
1749981461.871642,2502
1749981461.871713,2405
1749981461.8717842,2130
1749981461.871855,1780
1749981461.8719256,1462
1749981461.8719966,1229
1749981461.8720677,1171
1749981461.8721442,1398
1749981461.872215,1849
1749981461.8722868,2280
1749981461.8723595,2491
1749981461.8724287,2442
1749981461.8724988,2185
1749981461.8725681,1830
1749981461.8726377,1493
1749981461.8727074,1243
1749981461.87291,1157
1749981461.8731244,1356
1749981461.880366,1808
1749981461.880704,2280
1749981461.881372,2537
1749981461.8825765,2524
1749981461.8827636,2283
1749981461.8830676,1935
1749981461.8831713,1587
1749981461.884117,1314
1749981461.884236,1175
1749981461.8843412,1308
1749981461.8844445,1722
1749981461.8845472,2218
1749981461.8846495,2528
1749981461.8847523,2565
1749981461.8848548,2356
1749981461.8849688,2023
1749981461.8857913,1675
1749981461.8859134,1392
1749981461.895555,1221
1749981461.8958733,1303
1749981461.8961241,1678
1749981461.8962278,2176
1749981461.8963306,2512
1749981461.8964334,2570
1749981461.8965356,2376
1749981461.8966389,2055
1749981461.896741,1716
1749981461.896843,1436
1749981461.8969474,1243
1749981461.8971493,1267
1749981461.8972526,1591
1749981461.897355,2092
1749981461.897457,2481
1749981461.8990476,2599
1749981461.8992107,2440
1749981461.8993156,2116
1749981461.9122493,1752
1749981461.9256368,1452
1749981461.9258962,1250
1749981461.9261084,1244
1749981461.9263175,1519
1749981461.9264615,1986
1749981461.926611,2382
1749981461.9267538,2539
1749981461.927109,2439
1749981461.9274387,2158
1749981461.9277546,1806
1749981461.9280643,1494
1749981461.9284313,1274
1749981461.9287934,1238
1749981461.929297,1487
1749981461.929579,1954
1749981461.929918,2387
1749981461.9301887,2589
1749981461.930292,2530
1749981461.9303951,2268
1749981461.9304986,1916
1749981461.9306018,1585
1749981461.930705,1344
1749981461.9308083,1267
1749981461.940883,1471
1749981461.9650135,1913
1749981461.9730253,2357
1749981461.9731333,2581
1749981461.9732075,2543
1749981461.973284,2297
1749981461.9733598,1959
1749981462.0533574,1632
1749981462.1235085,1379
1749981462.1417508,1254
1749981462.1893094,1388
1749981462.1894364,1787
1749981462.189703,2264
1749981462.189826,2565
1749981462.1914256,2607
1749981462.1918602,2402
1749981462.1924117,2059
1749981462.1932757,1693
1749981462.1934025,1404
1749981462.1941392,1250
1749981462.1943555,1358
1749981462.1954508,1746
1749981462.1963272,2240
1749981462.1964133,2573
1749981462.1965265,2645
1749981462.196608,2469
1749981462.1966887,2150
1749981462.1967688,1795
1749981462.196849,1505
1749981462.2020597,1318
1749981462.2021453,1353
1749981462.2022238,1665
1749981462.2023017,2132
1749981462.2023797,2497
1749981462.2024572,2627
1749981462.2025342,2506
1749981462.2026112,2210
1749981462.2026882,1841
1749981462.2027686,1519
1749981462.2028472,1302
1749981462.2029247,1301
1749981462.2030022,1591
1749981462.2030795,2070
1749981462.2031584,2470
1749981462.203239,2629
1749981462.2033153,2527
1749981462.2033918,2239
1749981462.2034693,1878
1749981462.203546,1558
1749981462.2036223,1331
1749981462.2036989,1283
1749981462.2037752,1518
1749981462.2038527,1976
1749981462.2039294,2410
1749981462.2040067,2619
1749981462.204083,2560
1749981462.2041597,2288
1749981462.2042358,1923
1749981462.204312,1587
1749981462.2043896,1346
1749981462.204467,1271
1749981462.2045436,1476
1749981462.2046201,1924
1749981462.2046962,2385
1749981462.204773,2628
1749981462.204849,2599
1749981462.2049463,2342
1749981462.2050228,1979
1749981462.205099,1624
1749981462.2051754,1356
1749981462.2052517,1232
1749981462.2053273,1385
1749981462.2054048,1811
1749981462.2054832,2307
1749981462.20556,2605
1749981462.2056358,2622
1749981462.2057128,2388
1749981462.2057905,2031
1749981462.2058682,1668
1749981462.205947,1379
1749981462.2327945,1221
1749981462.245147,1329
1749981462.2453268,1718
1749981462.2616608,2215
1749981462.2617736,2548
1749981462.2618773,2616
1749981462.2619805,2431
1749981462.2621057,2101
1749981462.2706482,1728
1749981462.3329928,1416
1749981462.3382902,1231
1749981462.3391774,1302
1749981462.3392572,1647
1749981462.3393297,2102
1749981462.3394027,2400
1749981462.339475,2443
1749981462.339543,2246
1749981462.3416123,1908
1749981462.34169,1515
1749981462.3417635,1172
1749981462.341836,949
1749981462.341908,977
1749981462.3419807,1311
1749981462.3420537,1826
1749981462.3421257,2247
1749981462.3421972,2413
1749981462.3422694,2301
1749981462.3423407,1993
1749981462.3427496,1605
1749981462.3428237,1261
1749981462.342895,1029
1749981462.342966,1002
1749981462.3430371,1253
1749981462.3431084,1706
1749981462.3433666,2121
1749981462.3434381,2316
1749981462.3435094,2253
1749981462.3435814,1983
1749981462.3436527,1615
1749981462.3437235,1272
1749981462.3437943,1027
1749981462.3438656,961
1749981462.3439367,1182
1749981462.3750324,1642
1749981462.3920128,2100
1749981462.3922148,2338
1749981462.3940902,2307
1749981462.4059262,2055
1749981462.4060388,1701
1749981462.4064918,1364
1749981462.407479,1111
1749981462.4185092,999
1749981462.4186625,1155
1749981462.418773,1575
1749981462.4189987,2059
1749981462.4191043,2359
1749981462.4217076,2394
1749981462.4231894,2183
1749981462.4233246,1842
1749981462.4234076,1490
1749981462.4234831,1216
1749981462.423558,1067
1749981462.4236326,1176
1749981462.4237072,1569
1749981462.4237814,2071
1749981462.423856,2417
1749981462.4239306,2500
1749981462.424005,2326
1749981462.4240787,2004
1749981462.424153,1659
1749981462.4242268,1395
1749981462.4243011,1234
1749981462.4243753,1284
1749981462.424449,1614
1749981462.4245234,2102
1749981462.4246047,2480
1749981462.4246786,2606
1749981462.4247525,2463
1749981462.4248266,2142
1749981462.4249518,1770
1749981462.42503,1456
1749981462.4251037,1220
1749981462.4251788,1176
1749981462.4252563,1466
1749981462.4253306,2038
1749981462.425405,2608
1749981462.4254792,2935
1749981462.4255536,2934
1749981462.4256277,2671
1749981462.4257019,2306
1749981462.4257755,1988
1749981462.42585,1742
1749981462.4259243,1624
1749981462.4259984,1749
1749981462.4260728,2094
1749981462.4261467,2441
1749981462.4262211,2609
1749981462.426295,2553
1749981462.426369,2309
1749981462.4264424,1974
1749981462.4265168,1653
1749981462.426595,1392
1749981462.4266686,1261
1749981462.4267428,1392
1749981462.4268162,1769
1749981462.4268851,2170
1749981462.426944,2379
1749981462.4270163,2348
1749981462.4270904,2108
1749981462.4271643,1760
1749981462.4272387,1410
1749981462.4273124,1133
1749981462.4273863,993
1749981462.4274604,1121
1749981462.427535,1516
1749981462.4276097,1982
1749981462.4276834,2270
1749981462.427758,2299
1749981462.427832,2085
1749981462.4279094,1734
1749981462.4279838,1358
1749981462.4280581,1056
1749981462.4281318,887
1749981462.4282057,984
1749981462.447465,1367
1749981462.482555,1860
1749981462.4829671,2192
1749981462.4833066,2260
1749981462.4836287,2076
1749981462.4990737,1748
1749981462.552408,1381
1749981462.5525384,1075
1749981462.5526822,875
1749981462.553248,911
1749981462.5533526,1239
1749981462.5534558,1722
1749981462.5535593,2085
1749981462.5536633,2195
1749981462.553767,2051
1749981462.55387,1748
1749981462.5551953,1389
1749981462.5553062,1074
1749981462.5554104,848
1749981462.5555139,831
1749981462.5556183,1111
1749981462.5557232,1589
1749981462.555827,1993
1749981462.5559306,2156
1749981462.556034,2054
1749981462.5561378,1766
1749981462.5562406,1402
1749981462.5588474,1074
1749981462.5600443,835
1749981462.5601285,787
1749981462.5602098,1032
1749981462.5606585,1500
1749981462.5925698,1934
1749981462.6041114,2139
1749981462.6124132,2090
1749981462.6190739,1840
1749981462.6719623,1485
1749981462.746521,1128
1749981462.7594159,855
1749981462.771016,776
1749981462.7712464,997
1749981462.7713518,1440
1749981462.7718136,1873
1749981462.774542,2115
1749981462.775246,2136
1749981462.7753348,1938
1749981462.7763925,1569
1749981462.776626,1156
1749981462.776762,888
1749981462.776898,912
1749981462.7770529,1262
1749981462.7772014,1728
1749981462.7773662,2027
1749981462.7774997,2052
1749981462.7776468,1930
1749981462.7777889,1742
1749981462.7779446,1472
1749981462.778107,1080
1749981462.7782521,664
1749981462.7783678,414
1749981462.7784805,551
1749981462.778583,1049
1749981462.7786846,1645
1749981462.7787857,2028
1749981462.7788866,2109
1749981462.7789884,1917
1749981462.7790895,1569
1749981462.7791905,1175
1749981462.7816498,855
1749981462.8169572,681
1749981462.820052,777
1749981462.8203928,1150
1749981462.8207283,1641
1749981462.8232093,1988
1749981462.8237386,2081
1749981462.8242385,1930
1749981462.8245778,1637
1749981462.8269122,1305
1749981462.827404,1026
1749981462.8277454,832
1749981462.8280857,833
1749981462.8284473,1107
1749981462.8287835,1557
1749981462.8292992,1930
1749981462.8297467,2084
1749981462.8300776,1994
1749981462.8304105,1728
1749981462.8307414,1390
1749981462.8310733,1092
1749981462.8314052,880
1749981462.8317707,852
1749981462.832103,1097
1749981462.832437,1545
1749981462.8327684,1953
1749981462.833103,2147
1749981462.838366,2093
1749981462.838707,1844
1749981462.8425663,1505
1749981462.8783102,1191
1749981462.898506,960
1749981462.9330797,891
1749981463.0053396,1093
1749981463.0054271,1524
1749981463.005502,1958
1749981463.00558,2190
1749981463.0056577,2173
1749981463.0057352,1945
1749981463.0058126,1610
1749981463.0058904,1281
1749981463.0059676,1029
1749981463.0060456,919
1749981463.0061238,1076
1749981463.0062008,1486
1749981463.0062785,1944
1749981463.006355,2218
1749981463.006432,2242
1749981463.00652,2037
1749981463.006597,1707
1749981463.0066738,1363
1749981463.00675,1092
1749981463.006827,944
1749981463.0068934,1046
1749981463.0069566,1412
1749981463.0070329,1872
1749981463.0071094,2182
1749981463.0071862,2253
1749981463.0072627,2085
1749981463.0073388,1768
1749981463.0074153,1411
1749981463.0074918,1122
1749981463.0075684,954
1749981463.0076451,1028
1749981463.0077214,1380
1749981463.0077977,1858
1749981463.0078745,2205
1749981463.007951,2311
1749981463.0080273,2170
1749981463.008104,1868
1749981463.0081804,1509
1749981463.010881,1203
1749981463.0442698,998
1749981463.0480614,1004
1749981463.073469,1291
1749981463.0788906,1752
1749981463.0789692,2130
1749981463.0790448,2285
1749981463.07912,2190
1749981463.0791948,1910
1749981463.0792692,1552
1749981463.0793438,1234
1749981463.079422,1010
1749981463.0794976,982
1749981463.0795722,1237
1749981463.0796468,1696
1749981463.0797212,2108
1749981463.0797951,2295
1749981463.07987,2226
1749981463.0799446,1960
1749981463.0800188,1604
1749981463.080093,1275
1749981463.0801666,1030
1749981463.080241,953
1749981463.0803156,1161
1749981463.0803897,1612
1749981463.0804644,2063
1749981463.0805395,2298
1749981463.0806139,2267
1749981463.0806885,2020
1749981463.0807655,1675
1749981463.0808418,1345
1749981463.080919,1086
1749981463.0811296,960
1749981463.0812151,1098
1749981463.081281,1501
1749981463.0813565,1965
1749981463.0814338,2248
1749981463.081511,2273
1749981463.0816166,2062
1749981463.081695,1725
1749981463.0817726,1380
1749981463.0818498,1109
1749981463.081927,958
1749981463.0820034,1049
1749981463.0820806,1402
1749981463.0821574,1854
1749981463.082234,2164
1749981463.082311,2239
1749981463.0823882,2072
1749981463.0824661,1749
1749981463.0825436,1385
1749981463.0826204,1092
1749981463.0826976,922
1749981463.0827746,987
1749981463.0828516,1316
1749981463.082989,1768
1749981463.0830662,2102
1749981463.0831513,2213
1749981463.083216,2084
1749981463.0832806,1788
1749981463.0833468,1427
1749981463.1140802,1122
1749981463.166082,928
1749981463.1662235,953
1749981463.2186522,1252
1749981463.2199671,1710
1749981463.2201977,2078
1749981463.2202718,2225
1749981463.226113,2132
1749981463.2263176,1859
1749981463.2263954,1503
1749981463.226568,1177
1749981463.2266877,943
1749981463.227184,907
1749981463.2587554,1165
1749981463.2645822,1635
1749981463.2656476,2059
1749981463.2662985,2260
1749981463.2664082,2200
1749981463.2680635,1940
1749981463.2681735,1587
1749981463.2682998,1259
1749981463.268404,1012
1749981463.2685068,925
1749981463.2686095,1112
1749981463.268712,1535
1749981463.2688138,1969
1749981463.2689173,2211
1749981463.2692025,2204
1749981463.2693064,1977
1749981463.269409,1630
1749981463.2695115,1281
1749981463.2696133,1010
1749981463.2697153,893
1749981463.2698178,1055
1749981463.2699292,1481
1749981463.2700322,1956
1749981463.2701342,2242
1749981463.2702363,2267
1749981463.270338,2058
1749981463.2704399,1722
1749981463.2705426,1370
1749981463.2706444,1085
1749981463.2707467,922
1749981463.2708678,1021
1749981463.2709904,1402
1749981463.271093,1887
1749981463.2711952,2214
1749981463.2712972,2283
1749981463.271399,2104
1749981463.2715008,1781
1749981463.2716663,1426
1749981463.2717695,1130
1749981463.2718768,939
1749981463.2719798,987
1749981463.2720823,1330
1749981463.2721841,1821
1749981463.272286,2186
1749981463.272388,2298
1749981463.27249,2150
1749981463.2725916,1842
1749981463.2726943,1485
1749981463.2727964,1179
1749981463.2728977,965
1749981463.2730005,964
1749981463.2772822,1259
1749981463.2773912,1742
1749981463.2774956,2142
1749981463.2775998,2301
1749981463.2777028,2200
1749981463.277815,1915
1749981463.2779176,1559
1749981463.2780197,1239
1749981463.278123,1003
1749981463.2782338,960
1749981463.278339,1212
1749981463.278442,1682
1749981463.2785444,2107
1749981463.278647,2305
1749981463.2787495,2243
1749981463.278852,1983
1749981463.2789543,1634
1749981463.2790568,1306
1749981463.2798553,1055
1749981463.2799335,973
1749981463.2800097,1180
1749981463.2800844,1628
1749981463.280159,2075
1749981463.2802331,2309
1749981463.2803082,2286
1749981463.2803826,2051
1749981463.2804575,1711
1749981463.2805316,1374
1749981463.2806067,1105
1749981463.2806811,979
1749981463.2807558,1130
1749981463.2808301,1550
1749981463.280905,2022
1749981463.28097,2302
1749981463.2810285,2321
1749981463.281103,2110
1749981463.2811773,1778
1749981463.2812517,1433
1749981463.2813258,1151
1749981463.2814026,985
1749981463.281487,1080
1749981463.2815711,1461
1749981463.3052077,1947
1749981463.3419313,2269
1749981463.4133742,2331
1749981463.5255442,2146
1749981463.5443776,1823
1749981463.5444925,1472
1749981463.5449367,1181
1749981463.5451584,994
1749981463.548502,1045
1749981463.550229,1387
1749981463.5505974,1873
1749981463.550919,2230
1749981463.5631595,2334
1749981463.5632482,2184
1749981463.5643866,1877
1749981463.5846884,1524
1749981463.6211805,1224
1749981463.62165,1012
1749981463.621727,1007
1749981463.621808,1290
1749981463.6219294,1756
1749981463.6220787,2142
1749981463.622158,2295
1749981463.6222374,2193
1749981463.622317,1908
1749981463.6224656,1549
1749981463.6225462,1228
1749981463.6226265,996
1749981463.6227057,964
1749981463.6233618,1229
1749981463.6234562,1708
1749981463.6235843,2133
1749981463.623716,2321
1749981463.6238103,2247
1749981463.6238835,1982
1749981463.623957,1636
1749981463.6240296,1314
1749981463.624102,1064
1749981463.6241717,977
1749981463.6248205,1177
1749981463.624919,1622
1749981463.6249928,2069
1749981463.6250541,2299
1749981463.625116,2268
1749981463.6251898,2026
1749981463.6252644,1683
1749981463.6253374,1348
1749981463.6254091,1081
1749981463.6254811,955
1749981463.6255536,1106
1749981463.6256254,1524
1749981463.6256971,1992
1749981463.6257796,2268
1749981463.6258516,2284
1749981463.6712627,2071
1749981463.6713796,1736
1749981463.6714847,1388
1749981463.671998,1107
1749981463.6721053,950
1749981463.6722233,1056
1749981463.6726718,1443
1749981463.6830907,1924
1749981463.6840048,2238
1749981463.686186,2296
1749981463.7183495,2115
1749981463.7184923,1799
1749981463.7216825,1455
1749981463.722061,1170
1749981463.7231,986
1749981463.7235494,1038
1749981463.7239437,1378
1749981463.7243602,1860
1749981463.7342503,2214
1749981463.7345057,2321
1749981463.7373524,2174
1749981463.7374341,1868
1749981463.737513,1512
1749981463.7375913,1211
1749981463.7376695,1007
1749981463.7377472,1017
1749981463.7378273,1311
1749981463.7379053,1778
1749981463.7382758,2156
1749981463.7390182,2301
1749981463.7390988,2193
1749981463.7391758,1904
1749981463.7392528,1542
1749981463.7393296,1226
1749981463.7394068,1004
1749981463.739483,975
1749981463.7395597,1224
1749981463.7396362,1674
1749981463.7397127,2082
1749981463.7397923,2278
1749981463.7398686,2223
1749981463.7399457,1961
1749981463.740023,1597
1749981463.7401,1263
1749981463.7401764,1028
1749981463.7402534,969
1749981463.74033,1181
1749981463.7404077,1610
1749981463.7404847,2035
1749981463.7405615,2265
1749981463.7406383,2252
1749981463.7407153,2021
1749981463.7407923,1671
1749981463.7408686,1324
1749981463.741067,1063
1749981463.7411456,959
1749981463.7412236,1131
1749981463.7413006,1554
1749981463.7413776,2018
1749981463.7414544,2294
1749981463.7415314,2316
1749981463.7416244,2108
1749981463.7419088,1773
1749981463.7419858,1425
1749981463.7420626,1148
1749981463.742139,996
1749981463.742217,1103
1749981463.742294,1485
1749981463.7423706,1963
1749981463.7424474,2278
1749981463.7425244,2337
1749981463.7426012,2150
1749981463.7426777,1820
1749981463.7427545,1465
1749981463.7428317,1178
1749981463.743028,999
1749981463.743106,1053
1749981463.743183,1384
1749981463.7432594,1855
1749981463.743337,2206
1749981463.7434146,2318
1749981463.743492,2176
1749981463.743569,1867
1749981463.744719,1501
1749981463.746172,1195
1749981463.8132982,997
1749981463.815334,1023
1749981463.8159544,1338
1749981463.8162177,1824
1749981463.8168013,2214
1749981463.8174791,2363
1749981463.818768,2253
1749981463.8191042,1961
1749981463.9322631,1596
1749981464.042344,1275
1749981464.0424638,1046
1749981464.0425491,1014
1749981464.0426161,1271
1749981464.0426815,1738
1749981464.0427468,2158
1749981464.0428126,2354
1749981464.042878,2291
1749981464.042943,2030
1749981464.0430083,1676
1749981464.0430748,1345
1749981464.0431402,1094
1749981464.043205,1015
1749981464.043271,1225
1749981464.0433366,1674
1749981464.0434015,2119
1749981464.043467,2349
1749981464.0435326,2318
1749981464.0435982,2074
1749981464.0436645,1727
1749981464.0437298,1392
1749981464.0437949,1131
1749981464.0438604,1015
1749981464.043926,1174
1749981464.0439913,1593
1749981464.0440564,2058
1749981464.0441222,2330
1749981464.0441875,2341
1749981464.0442526,2121
1749981464.0443177,1779
1749981464.0443826,1428
1749981464.0444474,1149
1749981464.044522,1000
1749981464.044588,1112
1749981464.0446534,1502
1749981464.0447178,1985
1749981464.044783,2301
1749981464.0448482,2360
1749981464.0449421,2175
1749981464.0450099,1852
1749981464.0450754,1499
1749981464.045141,1207
1749981464.045206,1023
1749981464.0452707,1081
1749981464.0453343,1427
1749981464.0453992,1913
1749981464.0454657,2266
1749981464.0455313,2367
1749981464.045596,2215
1749981464.0456607,1908
1749981464.0457253,1551
1749981464.0457902,1247
1749981464.0458555,1037
1749981464.04592,1047
1749981464.045985,1350
1749981464.0460498,1833
1749981464.0461142,2220
1749981464.0461793,2363
1749981464.0462444,2246
1749981464.0463092,1953
1749981464.0463722,1596
1749981464.0464344,1283
1749981464.0465047,1059
1749981464.0465708,1029
1749981464.0466413,1288
1749981464.046719,1757
1749981464.0467966,2177
1749981464.0468733,2367
1749981464.0469506,2293
1749981464.0470288,2020
1749981464.047105,1660
1749981464.047182,1331
1749981464.0472581,1088
1749981464.0473347,1016
1749981464.0474112,1225
1749981464.0474882,1669
1749981464.0475652,2113
1749981464.0476422,2348
1749981464.0477188,2320
1749981464.0477955,2072
1749981464.047872,1716
1749981464.0479498,1377
1749981464.0480268,1124
1749981464.0481033,1017
1749981464.0481803,1169
1749981464.1037138,1567
1749981464.1205306,2013
1749981464.120872,2286
1749981464.1212072,2314
1749981464.1217802,2105
1749981464.1221945,1759
1749981464.1520767,1396
1749981464.1764104,1115
1749981464.1861963,979
1749981464.1862772,1108
1749981464.1863482,1503
1749981464.1864169,1977
1749981464.1864862,2281
1749981464.1866608,2334
1749981464.1867397,2146
1749981464.186804,1821
1749981464.1868668,1469
1749981464.1869357,1184
1749981464.1870408,1009
1749981464.1871145,1073
1749981464.1871843,1417
1749981464.1872518,1894
1749981464.1873186,2241
1749981464.1873882,2339
1749981464.1874888,2184
1749981464.187557,1873
1749981464.1876235,1516
1749981464.1876905,1215
1749981464.1877604,1010
1749981464.187832,1024
1749981464.187931,1328
1749981464.1880088,1810
1749981464.1880763,2198
1749981464.1881466,2340
1749981464.1882136,2219
1749981464.194529,1919
1749981464.2020628,1555
1749981464.202142,1239
1749981464.2022357,1013
1749981464.2023098,984
1749981464.2024105,1243
1749981464.2025075,1710
1749981464.2025807,2125
1749981464.2026527,2311
1749981464.2027252,2235
1749981464.2027977,1965
1749981464.2028866,1609
1749981464.2029588,1281
1749981464.2030313,1034
1749981464.2031035,960
1749981464.203176,1174
1749981464.203248,1627
1749981464.2033868,2071
1749981464.2034621,2296
1749981464.2035346,2256
1749981464.2036054,2004
1749981464.2036777,1653
1749981464.203748,1318
1749981464.2038205,1058
1749981464.2038922,942
1749981464.2040071,1102
1749981464.2040806,1523
1749981464.204154,1989
1749981464.2042258,2260
1749981464.2042978,2266
1749981464.2043695,2038
1749981464.2046463,1692
1749981464.2047195,1341
1749981464.2047923,1064
1749981464.204864,917
1749981464.2049453,1034
1749981464.205018,1429
1749981464.2050903,1914
1749981464.2051628,2225
1749981464.205235,2271
1749981464.2053072,2069
1749981464.205379,1730
1749981464.2054515,1370
1749981464.2055235,1077
1749981464.205596,893
1749981464.2056673,950
1749981464.2057364,1294
1749981464.2058027,1775
1749981464.205871,2124
1749981464.2059426,2228
1749981464.2060144,2084
1749981464.2060857,1771
1749981464.2061572,1401
1749981464.2062287,1095
1749981464.2063005,908
1749981464.2063723,945
1749981464.2064435,1265
1749981464.2065146,1742
1749981464.206586,2122
1749981464.206657,2277
1749981464.2067277,2180
1749981464.2067988,1866
1749981464.216682,1441
1749981464.2218337,1065
1749981464.2224734,841
1749981464.222549,890
1749981464.2226179,1289
1749981464.2226903,1929
1749981464.2230844,2538
1749981464.2231567,2937
1749981464.2232292,3090
1749981464.2232985,3024
1749981464.2233665,2824
1749981464.2234347,2594
1749981464.223515,2388
1749981464.2235842,2299
1749981464.2236497,2485
1749981464.2237248,2942
1749981464.2237918,3436
1749981464.2238605,3730
1749981464.2239263,3757
1749981464.2239938,3566
1749981464.22406,3286
1749981464.2241287,3031
1749981464.2241967,2831
1749981464.2242637,2727
1749981464.2243302,2870
1749981464.2243977,3289
1749981464.2244642,3784
1749981464.2245312,4089
1749981464.2245977,4133
1749981464.2246637,3938
1749981464.2247303,3606
1749981464.224797,3246
1749981464.2248662,2962
1749981464.224945,2836
1749981464.2250106,2978
1749981464.2250779,3351
1749981464.2251444,3780
1749981464.2252107,4084
1749981464.2252798,4209
1749981464.2253501,4077
1749981464.2254322,3680
1749981464.2255025,3180
1749981464.225572,2919
1749981464.2256424,3094
1749981464.2257123,3627
1749981464.2257829,4132
1749981464.2258527,4281
1749981464.225923,4080
1749981464.2259936,3834
1749981464.2260637,3654
1749981464.2261345,3364
1749981464.2262042,2764
1749981464.2262738,1984
1749981464.2263436,1372
1749981464.2264137,1276
1749981464.226484,1704
1749981464.2265542,2342
1749981464.2266243,2797
1749981464.226694,2931
1749981464.23319,2776
1749981464.2332723,2443
1749981464.2333453,2029
1749981464.2334173,1645
1749981464.2334895,1359
1749981464.2335613,1292
1749981464.2336328,1509
1749981464.2337046,1917
1749981464.2337759,2260
1749981464.2338474,2361
1749981464.2339187,2211
1749981464.2339902,1916
1749981464.2340612,1597
1749981464.2341325,1334
1749981464.2342045,1132
1749981464.234276,1052
1749981464.2343476,1209
1749981464.2344189,1579
1749981464.2344904,1953
1749981464.2345612,2138
1749981464.2346325,2090
1749981464.2347033,1851
1749981464.2347748,1517
1749981464.2348459,1185
1749981464.2349322,912
1749981464.2350047,770
1749981464.2350764,893
1749981464.2351475,1273
1749981464.235224,1699
1749981464.235295,1945
1749981464.2353663,1948
1749981464.2354374,1735
1749981464.2355084,1409
1749981464.2355795,1072
1749981464.2356505,792
1749981464.235722,627
1749981464.2357929,715
1749981464.2358644,1079
1749981464.2359354,1536
1749981464.2360067,1837
1749981464.236078,1892
1749981464.2361503,1708
1749981464.2362225,1381
1749981464.2362964,1018
1749981464.2363684,717
1749981464.236441,534
1749981464.236512,601
1749981464.2365832,949
1749981464.2366545,1418
1749981464.2367258,1746
1749981464.236797,1830
1749981464.2380176,1674
1749981464.2381837,1368
1749981464.2388108,1012
1749981464.2390165,704
1749981464.2390885,493
1749981464.239168,510
1749981464.2392402,822
1749981464.239335,1303
1749981464.2394078,1682
1749981464.2394803,1818
1749981464.239552,1699
1749981464.2396238,1408
1749981464.2396948,1050
1749981464.2397666,730
1749981464.2398376,496
1749981464.2399094,464
1749981464.2399817,732
1749981464.2400532,1209
1749981464.240125,1622
1749981464.2401981,1794
1749981464.2402704,1701
1749981464.240342,1421
1749981464.2404137,1071
1749981464.2404854,758
1749981464.2405565,523
1749981464.240629,456
1749981464.240701,674
1749981464.240788,1128
1749981464.337162,1572
1749981464.337277,1795
1749981464.3374786,1755
1749981464.3377583,1504
1749981464.337867,1153
1749981464.3379707,812
1749981464.3380759,540
1749981464.3381793,420
1749981464.3383071,588
1749981464.338413,1024
1749981464.3385167,1501
1749981464.3386207,1776
1749981464.338724,1782
1749981464.4122324,1557
1749981464.412627,1215
1749981464.4127378,870
1749981464.414156,595
1749981464.4143217,451
1749981464.4201598,573
1749981464.4207206,970
1749981464.420858,1448
1749981464.421052,1751
1749981464.4217048,1796
1749981464.4218135,1604
1749981464.4219205,1282
1749981464.4235659,938
1749981464.4270308,656
1749981464.4275393,484
1749981464.4276168,558
1749981464.4276903,920
1749981464.4277632,1412
1749981464.4278352,1762
1749981464.4282482,1859
1749981464.4286587,1703
