1749979723.1083436,1940
1749979723.147064,1647
1749979723.1702282,1414
1749979723.1741476,1289
1749979723.1754673,1408
1749979723.177492,1781
1749979723.1791782,2213
1749979723.1818228,2468
1749979723.1830235,2484
1749979723.1841793,2290
1749979723.1854303,1989
1749979723.1865377,1682
1749979723.187812,1439
1749979723.1888871,1294
1749979723.1900697,1376
1749979723.1921453,1716
1749979723.1932724,2149
1749979723.1949818,2429
1749979723.1970403,2476
1749979723.198263,2306
1749979723.1991267,2012
1749979723.1998718,1696
1749979723.2013958,1444
1749979723.203914,1281
1749979723.2053397,1316
1749979723.2067778,1607
1749979723.2079403,2032
1749979723.209117,2345
1749979723.2100754,2442
1749979723.2110846,2317
1749979723.2121387,2041
1749979723.2129278,1715
1749979723.214262,1446
1749979723.2152596,1269
1749979723.216283,1277
1749979723.2171574,1536
1749979723.218001,1952
1749979723.218879,2290
1749979723.2196426,2426
1749979723.220697,2345
1749979723.2216458,2094
1749979723.2225733,1762
1749979723.2234159,1467
1749979723.2246802,1263
1749979723.2255125,1231
1749979723.2263649,1456
1749979723.2271037,1866
1749979723.2279055,2233
1749979723.2288697,2405
1749979723.229717,2360
1749979723.2305052,2134
1749979723.231348,1812
1749979723.232444,1509
1749979723.23329,1295
1749979723.2342584,1231
1749979723.2354743,1413
1749979723.236372,1801
1749979723.237224,2188
1749979723.2385366,2396
1749979723.2396734,2395
1749979723.2407415,2200
1749979723.2421227,1890
1749979723.2426047,1571
1749979723.2434108,1330
1749979723.2443762,1221
1749979723.245562,1353
1749979723.246319,1712
1749979723.2471206,2118
1749979723.2480152,2363
1749979723.2493947,2401
1749979723.250289,2234
1749979723.25085,1936
1749979723.2514055,1608
1749979723.2534308,1351
1749979723.2553554,1213
1749979723.2570162,1304
1749979723.2589972,1637
1749979723.260024,2059
1749979723.2613425,2343
1749979723.2624083,2416
1749979723.263292,2280
1749979723.2644513,2001
1749979723.2653496,1675
1749979723.2662766,1410
1749979723.2674732,1247
1749979723.268456,1288
1749979723.2692528,1579
1749979723.2700496,2000
1749979723.270873,2318
1749979723.2727156,2432
1749979723.2737465,2331
1749979723.2744813,2070
1749979723.2757401,1739
1749979723.2764053,1456
1749979723.2775488,1271
1749979723.2789006,1274
1749979723.2821867,1533
1749979723.283039,1954
1749979723.2840497,2303
1749979723.285031,2449
1749979723.285998,2379
1749979723.2869108,2135
1749979723.2888339,1806
1749979723.2924263,1506
1749979723.2932181,1295
1749979723.2939878,1251
1749979723.294654,1464
1749979723.2955048,1872
1749979723.2962177,2252
1749979723.2968707,2438
1749979723.2974434,2409
1749979723.29818,2192
1749979723.2990882,1871
1749979723.299775,1558
1749979723.300325,1327
1749979723.3008616,1242
1749979723.3014987,1409
1749979723.302367,1796
1749979723.3030446,2200
1749979723.3035855,2426
1749979723.3041098,2435
1749979723.3046503,2241
1749979723.3052175,1928
1749979723.3057783,1606
1749979723.306345,1362
1749979723.3069074,1246
1749979723.3075113,1368
1749979723.308171,1724
1749979723.3089337,2142
1749979723.309628,2403
1749979723.3103616,2450
1749979723.3111827,2286
1749979723.3119104,1988
1749979723.3129475,1655
1749979723.3137944,1392
1749979723.3144245,1245
1749979723.3152444,1325
1749979723.3160162,1655
1749979723.3166516,2087
1749979723.3173892,2385
1749979723.318053,2467
1749979723.3185916,2331
1749979723.319217,2049
1749979723.319687,1715
1749979723.3201182,1439
1749979723.320727,1261
1749979723.32128,1285
1749979723.3219872,1567
1749979723.3224819,1996
1749979723.3233678,2330
1749979723.3238618,2454
1749979723.3243594,2359
1749979723.3250523,2100
1749979723.3264585,1770
1749979723.327103,1483
1749979723.3278134,1285
1749979723.3286195,1264
1749979723.3296952,1501
1749979723.3310456,1919
1749979723.332542,2283
1749979723.333035,2445
1749979723.3338547,2384
1749979723.334658,2145
1749979723.3353288,1820
1749979723.3360164,1521
1749979723.337343,1305
1749979723.3380792,1246
1749979723.3384454,1448
1749979723.3393338,1861
1749979723.340915,2259
1749979723.3416753,2455
1749979723.3418674,2421
1749979723.342442,2197
1749979723.3433309,1883
1749979723.3440628,1584
1749979723.344411,1355
1749979723.3446977,1252
1749979723.345129,1401
1749979723.3456235,1795
1749979723.3463259,2227
1749979723.3470125,2467
1749979723.3483806,2468
1749979723.3509235,2267
1749979723.351001,1968
1749979723.351069,1665
1749979723.3514037,1411
1749979723.351668,1255
1749979723.351798,1353
1749979723.351993,1744
1749979723.3521535,2231
1749979723.3523118,2527
1749979723.3525157,2547
1749979723.3527188,2349
1749979723.3529167,2065
1749979723.353143,1779
1749979723.3533752,1526
1749979723.3535597,1323
1749979723.3537564,1338
1749979723.3539932,1677
1749979723.3547919,2187
1749979723.355786,2543
1749979723.35743,2604
1749979723.3575273,2418
1749979723.357866,2132
1749979723.357943,1851
1749979723.3601713,1611
1749979723.3624957,1391
1749979723.366113,1322
1749979723.3676078,1545
1749979723.3677607,1989
1749979723.3685243,2367
1749979723.3687043,2502
1749979723.3688521,2387
1749979723.3689682,2123
1749979723.3693862,1819
1749979723.369658,1559
1749979723.3699315,1355
1749979723.5139942,1297
1749979723.5195487,1512
1749979723.568865,1944
1749979723.629857,2331
1749979723.675897,2485
1749979723.72938,2397
1749979723.7708569,2145
1749979723.8022301,1841
1749979723.8413794,1571
1749979723.9031982,1359
1749979723.9047666,1271
1749979723.952282,1444
1749979723.9527497,1859
1749979723.953225,2275
1749979723.953654,2468
1749979723.9539802,2410
1749979723.954303,2176
1749979723.9546287,1883
1749979723.9549613,1614
1749979723.955071,1390
1749979723.9551687,1251
1749979723.9552653,1352
1749979723.9553618,1726
1749979724.1651342,2176
1749979724.191362,2442
1749979724.2219677,2450
1749979724.2429757,2244
1749979724.2639754,1945
1749979724.2850087,1652
1749979724.3060257,1417
1749979724.3270102,1263
1749979724.3480215,1328
1749979724.3690474,1665
1749979724.4004712,2113
1749979724.4320781,2404
1749979724.458128,2449
1749979724.4788158,2275
1749979724.4960365,1993
1749979724.572556,1695
1749979724.654062,1449
1749979724.6993124,1271
1749979724.8218877,1291
1749979724.838071,1587
1749979724.8385515,2037
1749979724.8419595,2366
1749979724.8423622,2453
1749979724.8424351,2313
1749979724.842525,2044
1749979724.842601,1742
1749979724.8426697,1485
1749979724.8427432,1288
1749979724.8428154,1260
1749979724.842889,1507
1749979724.8429577,1947
1749979724.8430254,2315
1749979724.8430922,2451
1749979724.8431609,2352
1749979724.8432345,2098
1749979724.8433201,1792
1749979724.8433955,1522
1749979724.8434649,1313
1749979724.843534,1246
1749979724.843603,1449
1749979724.8457167,1874
1749979724.845818,2272
1749979724.845889,2448
1749979724.8459618,2384
1749979724.8460336,2149
1749979724.84611,1851
1749979724.8461912,1583
1749979724.8462696,1367
1749979724.8463454,1251
1749979724.8464177,1385
1749979724.8464944,1783
1749979724.8465667,2221
1749979724.8466387,2450
1749979724.8478887,2416
1749979724.8479555,2191
1749979724.8480186,1909
1749979724.8480885,1650
1749979724.8481598,1419
1749979724.8482373,1255
1749979724.8483224,1354
1749979724.8492155,1775
1749979724.8492982,2264
1749979724.8493712,2449
1749979724.8494422,2222
1749979724.8495138,1734
1749979724.8495846,1284
1749979724.849661,1039
1749979724.8497324,964
1749979724.8770485,933
1749979724.9687405,1026
1749979725.0175264,1357
1749979725.0176394,1868
1749979725.0177448,2311
1749979725.0192907,2529
1749979725.0193639,2457
1749979725.0194397,2146
1749979725.0195093,1711
1749979725.019582,1299
1749979725.019654,1003
1749979725.0197248,972
1749979725.019787,1285
1749979725.019852,1790
1749979725.0199158,2179
1749979725.019978,2294
1749979725.0200455,2151
1749979725.0201163,1873
1749979725.020188,1580
1749979725.0202599,1348
1749979725.0203314,1176
1749979725.0204027,1171
1749979725.020474,1476
1749979725.020545,2018
1749979725.0206168,2466
1749979725.020688,2574
1749979725.0207586,2378
1749979725.0696428,2103
1749979725.0828683,1939
1749979725.0829875,1872
1749979725.0830646,1722
1749979725.0831356,1486
1749979725.1065545,1441
1749979725.1368587,1764
1749979725.137404,2261
1749979725.137505,2601
1749979725.137585,2627
1749979725.1376603,2393
1749979725.1377354,2084
1749979725.1378038,1836
1749979725.137874,1647
1749979725.1379483,1527
1749979725.1380188,1627
1749979725.1380882,1989
1749979725.138163,2402
1749979725.138236,2604
1749979725.1383097,2545
1749979725.1383843,2311
1749979725.139043,2050
1749979725.1391132,1835
1749979725.139187,1662
1749979725.1396375,1526
1749979725.1398501,1569
1749979725.1400578,1865
1749979725.140282,2273
1749979725.1405044,2542
1749979725.1407268,2586
1749979725.1409478,2425
1749979725.1411664,2160
1749979725.1414003,1883
1749979725.1416066,1659
1749979725.1418545,1507
1749979725.1419902,1516
1749979725.1432638,1784
1749979725.143398,2212
1749979725.1435313,2541
1749979725.1436634,2620
1749979725.1437967,2427
1749979725.1439285,2108
1749979725.14406,1836
1749979725.1441915,1669
1749979725.1442826,1508
1749979725.1443715,1419
1749979725.14446,1607
1749979725.1445508,2121
1749979725.1446419,2627
1749979725.1447332,2713
1749979725.1448243,2239
1749979725.1449144,1535
1749979725.145004,1101
1749979725.1810567,1116
1749979725.1814108,1268
1749979725.1814928,1282
1749979725.181571,1290
1749979725.1816487,1587
1749979725.1817403,2173
1749979725.1818204,2729
1749979725.1818955,2906
1749979725.181972,2631
1749979725.182049,2141
1749979725.1821249,1716
1749979725.1822014,1428
1749979725.1822767,1289
1749979725.1823518,1394
1749979725.1824276,1757
1749979725.1825101,2181
1749979725.182586,2429
1749979725.1826622,2417
1749979725.182739,2178
1749979725.1828141,1878
1749979725.18289,1615
1749979725.1829655,1423
1749979725.1830416,1324
1749979725.1831176,1421
1749979725.1831925,1713
1749979725.18327,2042
1749979725.1833463,2229
1749979725.1834207,2241
1749979725.1834972,2087
1749979725.183574,1832
1749979725.183651,1558
1749979725.1894386,1337
1749979725.1895833,1203
1749979725.1943812,1267
1749979725.1944957,1552
1749979725.1946023,1916
1749979725.1947072,2158
1749979725.1948113,2219
1749979725.1949177,2091
1749979725.1950383,1827
1749979725.1951737,1518
1749979725.1952782,1263
1749979725.1953554,1099
1749979725.195431,1133
1749979725.1955082,1405
1749979725.195585,1798
1749979725.195662,2095
1749979725.1957388,2205
1749979725.195816,2105
1749979725.1959176,1841
1749979725.1960173,1505
1749979725.1961267,1221
1749979725.1962187,1039
1749979725.196294,1053
1749979725.1963701,1315
1749979725.1964452,1724
1749979725.1965213,2056
1749979725.1965964,2198
1749979725.1966717,2129
1749979725.196748,1886
1749979725.1968298,1553
1749979725.196907,1253
1749979725.1969829,1046
1749979725.1970596,1013
1749979725.1971352,1232
1749979725.1972108,1633
1749979725.1972866,1997
1749979725.197362,2178
1749979725.1974368,2147
1749979725.1975121,1923
1749979725.1975887,1588
1749979725.1976638,1268
1749979725.1977403,1041
1749979725.1978173,971
1749979725.1978936,1148
1749979725.1979692,1530
1749979725.1980448,1913
1749979725.1981199,2127
1749979725.1982024,2136
1749979725.1982784,1945
1749979725.1983538,1627
1749979725.2126105,1299
1749979725.212729,1054
1749979725.2127984,947
1749979725.2128658,1081
1749979725.212932,1439
1749979725.2129986,1841
1749979725.2130647,2090
1749979725.2131326,2136
1749979725.2131977,1972
1749979725.2132647,1668
1749979725.2133307,1333
1749979725.213398,1074
1749979725.2134647,938
1749979725.2135315,1033
1749979725.2135978,1366
1749979725.2136638,1785
1749979725.2137308,2070
1749979725.213797,2153
1749979725.2138638,2025
1749979725.2139323,1744
1749979725.2139983,1409
1749979725.2140646,1136
1749979725.2141306,968
1749979725.2141967,1009
1749979725.2142625,1298
1749979725.2143285,1716
1749979725.2143943,2035
1749979725.2144601,2157
1749979725.2145262,2062
1749979725.2145922,1800
1749979725.214658,1464
1749979725.2147233,1179
1749979725.2147894,995
1749979725.2148552,999
1749979725.214921,1251
1749979725.2149868,1662
1749979725.2150521,2006
1749979725.2151403,2163
1749979725.2152104,2107
1749979725.215276,1871
1749979725.2153425,1540
1749979725.2154086,1241
1749979725.2154746,1034
1749979725.215541,995
1749979725.2156067,1204
1749979725.2156737,1600
1749979725.2157378,1970
1749979725.2157972,2160
1749979725.3190687,2142
1749979725.32915,1932
1749979725.329754,1608
1749979725.3299227,1292
1749979725.3299966,1062
1749979725.330068,981
1749979725.330138,1147
1749979725.3302083,1525
1749979725.3302953,1916
1749979725.330369,2141
1749979725.330443,2159
1749979725.3567903,1977
1749979725.3869522,1667
1749979725.4280746,1341
1749979725.4306626,1094
1749979725.444229,979
1749979725.451119,1101
1749979725.4511929,1453
1749979725.4512637,1860
1749979725.451335,2116
1749979725.4514048,2170
1749979725.4514751,2020
1749979725.4515526,1730
1749979725.451623,1401
1749979725.451698,1138
1749979725.451782,990
1749979725.4518454,1065
1749979725.4519114,1386
1749979725.451977,1805
1749979725.4520502,2099
1749979725.4521196,2193
1749979725.4521892,2075
1749979725.452262,1803
1749979725.4523313,1470
1749979725.4592574,1192
1749979725.459341,1020
1749979725.4594183,1053
1749979725.4594963,1338
1749979725.4595704,1756
1749979725.4596546,2077
1749979725.4597278,2202
1749979725.459802,2116
1749979725.459876,1862
1749979725.4599497,1527
1749979725.4600236,1234
1749979725.460097,1039
1749979725.4601715,1030
1749979725.4602444,1276
1749979725.4603176,1688
1749979725.4603913,2041
1749979725.4604647,2208
1749979725.4605381,2166
1749979725.4606116,1942
1749979725.4606848,1613
1749979725.4607582,1300
1749979725.4608316,1078
1749979725.4609053,1025
1749979725.4609787,1228
1749979725.4751518,1625
1749979725.4956105,2000
1749979725.4976912,2193
1749979725.4977698,2181
1749979725.4978447,1980
1749979725.4979193,1664
1749979725.4979935,1349
1749979725.4980676,1114
1749979725.498142,1025
1749979725.4982157,1184
1749979725.4982896,1561
1749979725.4983623,1962
1749979725.4984522,2195
1749979725.498526,2219
1749979725.4986005,2041
1749979725.4986746,1735
1749979725.498749,1410
1749979725.4988225,1164
1749979725.4988966,1044
1749979725.4989815,1157
1749979725.4990551,1503
1749979725.4991293,1916
1749979725.4992027,2184
1749979725.4992764,2249
1749979725.49935,2105
1749979725.4994237,1816
1749979725.4994972,1483
1749979725.4995708,1215
1749979725.4996448,1059
1749979725.4997182,1120
1749979725.4997919,1425
1749979725.4998655,1842
1749979725.4999394,2146
1749979725.5000126,2252
1749979725.500083,2145
1749979725.5001554,1874
1749979725.5002272,1537
1749979725.5002995,1259
1749979725.5003715,1088
1749979725.500444,1115
1749979725.5005162,1390
1749979725.5005887,1804
1749979725.5006626,2133
1749979725.500734,2269
1749979725.5008914,2194
1749979725.5009642,1948
1749979725.5458016,1618
1749979725.5467782,1327
1749979725.5715501,1130
1749979725.6117094,1105
1749979725.6118958,1330
1749979725.6124282,1732
1749979725.6127605,2090
1749979725.6128669,2263
1749979725.6131523,2223
1749979725.6135798,1996
1749979725.6136882,1667
1749979725.6137922,1359
1749979725.6138957,1140
1749979725.6140106,1075
1749979725.6141148,1258
1749979725.6142185,1646
1749979725.6143808,2032
1749979725.6144874,2243
1749979725.6146195,2243
1749979725.614725,2044
1749979725.6275275,1726
1749979725.6276093,1408
1749979725.6284552,1174
1749979725.6286778,1079
1749979725.6293447,1222
1749979725.629881,1585
1749979725.6304998,1983
1749979725.6309817,2225
1749979725.6485407,2262
1749979725.6504498,2097
1749979725.650673,1797
1749979725.650747,1468
1749979725.6508203,1213
1749979725.6520786,1081
1749979725.6521578,1180
1749979725.6522315,1514
1749979725.6528747,1928
1749979725.6529832,2202
1749979725.6530519,2275
1749979725.6531196,2137
1749979725.6531892,1851
1749979725.6532555,1515
1749979725.653322,1245
1749979725.6533911,1086
1749979725.653458,1136
1749979725.6535256,1432
1749979725.653593,1847
1749979725.6536596,2154
1749979725.6537213,2263
1749979725.6537886,2160
1749979725.6538558,1894
1749979725.6539228,1558
1749979725.65399,1276
1749979725.654057,1097
1749979725.6541243,1111
1749979725.6541908,1374
1749979725.6542616,1787
1749979725.6543298,2124
1749979725.6543958,2270
1749979725.6544642,2208
1749979725.6545305,1965
1749979725.6545968,1626
1749979725.6546652,1324
1749979725.6547341,1134
1749979725.6548085,1136
1749979725.6548803,1393
1749979725.6549468,1813
1749979725.655013,2166
1749979725.6970983,2312
1749979725.6977108,2245
1749979725.6979225,1999
1749979725.69935,1655
1749979725.699443,1333
1749979725.7168555,1111
1749979725.7169447,1055
1749979725.7170188,1258
1749979725.7170928,1670
1749979725.7171788,2079
1749979725.7172518,2298
1749979725.717325,2295
1749979725.717398,2084
1749979725.7174704,1744
1749979725.7175431,1397
1749979725.717616,1140
1749979725.7176883,1035
1749979725.7238793,1185
1749979725.7707207,1570
1749979725.7824929,1997
1749979725.7918854,2248
1749979725.7986093,2274
1749979725.798692,2085
1749979725.7987676,1760
1749979725.798842,1417
1749979725.7989156,1170
1749979725.8070476,1064
1749979725.8471684,1191
1749979725.8475156,1541
1749979725.8475947,1950
1749979725.8476703,2202
1749979725.8477437,2248
1749979725.847814,2098
1749979725.8478823,1809
1749979725.9008822,1467
1749979725.9213274,1188
1749979725.9228137,1027
1749979725.9383318,1087
1749979725.9388087,1400
1749979725.9391465,1834
1749979725.9394753,2156
1749979725.9398067,2267
1749979725.9401274,2159
1749979725.9404576,1880
1749979725.9640749,1525
1749979725.9940946,1227
1749979725.9977748,1049
1749979725.9978557,1069
1749979725.997927,1335
1749979725.9979959,1749
1749979725.9980652,2089
1749979725.9981332,2236
1749979725.9981987,2172
1749979725.9982681,1927
1749979725.9983332,1588
1749979725.998421,1281
1749979725.9984956,1077
1749979725.9985769,1044
1749979725.9986446,1256
1749979725.9987113,1647
1749979725.998776,2010
1749979725.998842,2195
1749979725.998908,2176
1749979725.9989748,1981
1749979725.9990406,1681
1749979725.999107,1326
1749979725.999173,969
1749979725.9992387,726
1749979725.9993043,798
1749979725.9993732,1199
1749979725.9994404,1701
1749979725.9995065,2019
1749979725.9995716,2096
1749979725.9996376,2016
1749979725.9997034,1890
1749979725.999764,1696
1749979725.9998267,1357
1749979725.9998937,1032
1749979725.999966,1149
1749979726.000032,1675
1749979726.000097,1640
1749979726.0001628,-149
1749979726.0002415,-3664
1749979726.0003083,-7283
1749979726.000374,-8933
1749979726.0004404,-7864
1749979726.0005088,-5100
1749979726.0005777,-2168
1749979726.0006893,437
1749979726.000759,3004
1749979726.00083,5352
1749979726.0008986,6514
1749979726.000964,5859
1749979726.0010295,3801
1749979726.0010958,1191
1749979726.0011618,-1841
1749979726.001228,-5817
1749979726.0012937,-10624
1749979726.001371,-14621
1749979726.0018952,-15851
1749979726.00198,-14019
1749979726.0020592,-10869
1749979726.0021372,-8411
1749979726.002215,-7384
1749979726.0022805,-7185
1749979726.0023468,-6995
1749979726.0024123,-6637
1749979726.002478,-6514
1749979726.0025427,-6855
1749979726.0026097,-7537
1749979726.0026753,-8378
1749979726.0027406,-9238
1749979726.0028052,-9803
1749979726.0028703,-9699
1749979726.002935,-8879
1749979726.0029998,-7697
1749979726.0030649,-6676
1749979726.003131,-6224
1749979726.0031958,-6420
1749979726.0032604,-7011
1749979726.0033255,-7660
1749979726.0033903,-8094
1749979726.0079937,-8102
1749979726.0080745,-7635
1749979726.0081449,-6935
1749979726.008213,-6351
1749979726.0082855,-6102
1749979726.0083532,-6204
1749979726.0084748,-6500
1749979726.0085456,-6712
1749979726.0086122,-6694
1749979726.00868,-6484
1749979726.0087464,-6173
1749979726.0088134,-5808
1749979726.0088809,-5522
1749979726.0089476,-5435
1749979726.009015,-5555
1749979726.009081,-5764
1749979726.009147,-5919
1749979726.009213,-5845
1749979726.0092788,-5520
1749979726.0093439,-5098
1749979726.0094106,-4756
1749979726.0094762,-4525
1749979726.0095427,-4442
1749979726.0096085,-4526
1749979726.0096738,-4735
1749979726.0097399,-4940
1749979726.009806,-5041
1749979726.0098724,-4905
1749979726.0099387,-4523
1749979726.010005,-4049
1749979726.0100784,-3690
1749979726.0101466,-3491
1749979726.010212,-3454
1749979726.0102766,-3568
1749979726.0103414,-3785
1749979726.0104063,-3989
1749979726.0104706,-4095
1749979726.0105362,-3987
1749979726.010601,-3620
1749979726.071888,-3130
1749979726.0762362,-2750
1749979726.0845144,-2562
1749979726.0853481,-2546
1749979726.132316,-2663
1749979726.1386619,-2865
1749979726.1398582,-3062
1749979726.1400821,-3194
1749979726.1402702,-3155
1749979726.1403663,-2845
1749979726.1404595,-2343
1749979726.1405532,-1883
1749979726.1406467,-1614
1749979726.14074,-1552
1749979726.1408334,-1674
1749979726.1409273,-1913
1749979726.1410196,-2159
1749979726.1411123,-2325
1749979726.1412058,-2329
1749979726.1413004,-2074
1749979726.1413932,-1618
1749979726.1414862,-1172
1749979726.1415787,-895
1749979726.1416714,-798
1749979726.1417902,-877
1749979726.1418831,-1086
1749979726.1419754,-1334
1749979726.1420667,-1526
1749979726.142159,-1578
1749979726.1422505,-1373
1749979726.1423395,-937
1749979726.1424284,-469
1749979726.142517,-167
1749979726.1426055,-63
1749979726.142695,-144
1749979726.1427832,-353
1749979726.1428716,-605
1749979726.1429603,-807
1749979726.143047,-900
1749979726.143136,-762
1749979726.1432252,-371
1749979726.1433141,113
1749979726.1434038,462
1749979726.1434934,610
1749979726.1435833,550
1749979726.1436722,340
1749979726.1437674,69
1749979726.1438503,-152
1749979726.143931,-275
1749979726.1440196,-192
1749979726.1441302,143
1749979726.1958601,608
1749979726.1959403,974
1749979726.1960049,1149
1749979726.1960661,1118
1749979726.1961393,925
1749979726.196213,651
1749979726.19637,412
1749979726.1964452,262
1749979726.241311,299
1749979726.318045,595
1749979726.344586,1057
1749979726.37778,1451
1749979726.3778968,1650
1749979726.378002,1640
1749979726.3781066,1458
1749979726.3782113,1184
1749979726.378316,928
1749979726.3785748,752
1749979726.3786857,742
1749979726.412048,1000
1749979726.4121418,1463
1749979726.4122272,1894
1749979726.4123113,2124
1749979726.4184952,2133
1749979726.4185846,1964
1749979726.4186702,1700
1749979726.418747,1440
1749979726.4188318,1241
1749979726.4189172,1168
1749979726.4190097,1347
1749979726.419095,1762
1749979726.4191794,2208
1749979726.4192638,2478
1749979726.4193485,2529
1749979726.4194326,2382
1749979726.4197521,2119
1749979726.419837,1842
1749979726.4199214,1628
1749979726.4200056,1524
1749979726.4200904,1653
1749979726.4201753,2024
1749979726.4202824,2466
1749979726.4203973,2760
1749979726.4204817,2847
1749979726.4205663,2728
1749979726.4206507,2470
1749979726.4207363,2173
1749979726.4208217,1939
1749979726.4209144,1817
1749979726.4209995,1921
1749979726.4210837,2278
1749979726.4211671,2733
1749979726.4212484,3053
1749979726.4213252,3161
1749979726.4214005,3064
1749979726.421475,2826
1749979726.421549,2534
1749979726.4216225,2284
1749979726.4216976,2119
1749979726.4218068,2149
1749979726.421883,2445
1749979726.4219584,2895
1749979726.4220335,3253
1749979726.4221094,3403
1749979726.4221845,3338
1749979726.4222565,3114
1749979726.4223313,2818
1749979726.4224064,2553
1749979726.422481,2363
1749979726.4225538,2350
1749979726.4226305,2610
1749979726.4227042,3063
1749979726.4227765,3459
1749979726.4228518,3640
1749979726.4229267,3595
1749979726.4230003,3380
1749979726.4230742,3086
1749979726.4231467,2812
1749979726.423222,2600
1749979726.4232972,2528
1749979726.4233725,2723
1749979726.4234474,3149
1749979726.4235206,3573
1749979726.423593,3795
1749979726.4236674,3786
1749979726.4237423,3592
1749979726.423816,3307
1749979726.4238896,3027
1749979726.4239635,2803
1749979726.4240377,2693
1749979726.4241128,2834
1749979726.4241881,3228
1749979726.424263,3668
1749979726.424337,3927
1749979726.4244092,3951
1749979726.4244823,3773
1749979726.4245572,3488
1749979726.4246325,3194
1749979726.4247074,2957
1749979726.424782,2816
1749979726.4248636,2904
1749979726.4249365,3253
1749979726.4250114,3695
1749979726.4285727,3985
1749979726.428656,4050
1749979726.4287302,3904
1749979726.4385333,3635
1749979726.4386163,3336
1749979726.443267,3087
1749979726.4453034,2921
1749979726.445416,2962
1749979726.445521,3273
1749979726.4456246,3718
1749979726.445728,4041
1749979726.4465544,4138
1749979726.4466672,4015
1749979726.4467723,3755
1749979726.4468765,3455
1749979726.4469807,3200
1749979726.447086,3013
1749979726.4471903,3001
1749979726.447294,3258
1749979726.4473975,3697
1749979726.4475007,4058
1749979726.447605,4198
1749979726.4477103,4105
1749979726.4478285,3853
1749979726.4479325,3546
1749979726.4480464,3280
1749979726.4481502,3077
1749979726.448253,3020
1749979726.4483562,3225
1749979726.4488702,3644
1749979726.452456,4036
1749979726.4525397,4220
1749979726.4526136,4169
1749979726.4526873,3937
1749979726.529554,3630
1749979726.5297992,3349
1749979726.5310984,3129
1749979726.531185,3035
1749979726.5312672,3196
1749979726.5313456,3598
1749979726.5314267,4019
1749979726.531509,4244
1749979726.5315871,4230
1749979726.5316677,4020
1749979726.53178,3720
1749979726.532109,3430
1749979726.5322626,3199
1749979726.5323536,3067
1749979726.5324342,3174
1749979726.5325134,3539
1749979726.5325933,3974
1749979726.5326703,4235
1749979726.53275,4258
1749979726.5328302,4069
1749979726.5329106,3774
1749979726.5330012,3475
1749979726.53307,3234
1749979726.5331454,3076
1749979726.5332253,3133
1749979726.533305,3461
1749979726.5333846,3907
1749979726.533453,4213
1749979726.5335147,4282
1749979726.5336363,4126
1749979726.5337157,3843
1749979726.5337937,3537
1749979726.5338714,3285
1749979726.5339484,3104
1749979726.5340257,3113
1749979726.53432,3396
1749979726.5344021,3839
1749979726.5344763,4177
1749979726.5345767,4283
1749979726.5346553,4158
1749979726.5347328,3889
1749979726.5348105,3577
1749979726.5348887,3312
1749979726.5716405,3111
1749979726.590716,3075
1749979726.5907984,3313
1749979726.6216557,3746
1749979726.6252737,4117
1749979726.640226,4264
1749979726.6575623,4176
1749979726.693957,3928
1749979726.70353,3619
1749979726.7036119,3343
1749979726.7036862,3127
1749979726.703751,3053
1749979726.7038238,3242
1749979726.7038913,3655
1749979726.703973,4049
1749979726.7040825,4234
1749979726.7041566,4185
1749979726.704229,3957
1749979726.704306,3652
1749979726.7043757,3366
1749979726.7048252,3138
1749979726.7302094,3022
1749979726.7645068,3154
1749979726.7771797,3530
1749979726.7773602,3943
1749979726.777496,4172
1749979726.7803664,4168
1749979726.7804472,3964
1749979726.7805176,3657
1749979726.7805874,3354
1749979726.7806573,3114
1749979726.7807276,2978
1749979726.7807975,3075
1749979726.78087,3429
1749979726.7809427,3861
1749979726.7810118,4127
1749979726.7810783,4160
1749979726.7811468,3981
1749979726.7812142,3689
1749979726.7812843,3384
1749979726.7813523,3134
1749979726.7814193,2965
1749979726.7814863,3004
1749979726.7815552,3309
1749979726.7816224,3740
1749979726.7816894,4043
1749979726.784303,4122
1749979726.7843814,3982
1749979726.7844555,3711
1749979726.7845225,3405
1749979726.784599,3149
1749979726.7846687,2965
1749979726.7847362,2966
1749979726.7848022,3234
1749979726.78487,3663
1749979726.7849367,3998
1749979726.785497,4112
1749979726.7860875,4000
1749979726.786174,3738
1749979726.7862504,3421
1749979726.786322,3145
1749979726.7863905,2936
1749979726.786461,2887
1749979726.7865295,3103
1749979726.7865994,3519
1749979726.7866693,3886
1749979726.786745,4041
1749979726.7868152,3967
1749979726.7868862,3725
1749979726.7869544,3415
1749979726.7870219,3137
1749979726.7870924,2925
1749979726.7871635,2846
1749979726.787231,3025
1749979726.7872982,3431
1749979726.7873678,3833
1749979726.7874389,4031
1749979726.7875082,3993
1749979726.7875767,3769
1749979726.7876463,3463
1749979726.787712,3174
1749979726.7877715,2943
1749979726.79283,2816
1749979726.792913,2927
1749979726.7929828,3288
1749979726.7930524,3703
1749979726.7931228,3941
1749979726.7931924,3945
1749979726.793262,3744
1749979726.7933319,3441
1749979726.7933996,3138
1749979726.7934697,2894
1749979726.793539,2742
1749979726.7936075,2816
1749979726.7936778,3153
1749979726.7937472,3589
1749979726.793816,3871
1749979726.793887,3920
1749979726.7939541,3753
1749979726.7940247,3465
1749979726.8263586,3160
1749979726.8725226,2910
1749979726.910985,2735
1749979726.9175885,2756
1749979726.945836,3041
1749979726.9813128,3465
1749979727.0060444,3775
1749979727.0061297,3859
1749979727.0062008,3721
1749979727.006272,3445
1749979727.0063403,3131
1749979727.0064151,2867
1749979727.006486,2673
1749979727.0068939,2656
1749979727.007693,2907
1749979727.007769,3338
1749979727.007836,3691
1749979727.0078979,3822
1749979727.007963,3722
1749979727.0080369,3465
1749979727.0586953,3150
1749979727.129532,2874
1749979727.162605,2659
1749979727.1860523,2593
1749979727.198956,2791
1749979727.1990712,3199
1749979727.2070925,3573
1749979727.2149208,3739
1749979727.2162893,3676
1749979727.2163785,3441
1749979727.216463,3131
1749979727.2165427,2845
1749979727.2166195,2620
1749979727.2168052,2521
1749979727.2168975,2680
1749979727.2169733,3078
1749979727.2170484,3488
1749979727.217168,3700
1749979727.217243,3677
1749979727.2179816,3462
1749979727.2180617,3158
1749979727.2181869,2863
1749979727.2182574,2627
1749979727.2183275,2495
1749979727.2184317,2602
1749979727.2185056,2963
1749979727.218703,3386
1749979727.218774,3634
1749979727.2188463,3648
1749979727.2189128,3456
1749979727.2189846,3159
1749979727.2190537,2852
1749979727.219131,2599
1749979727.2191987,2433
1749979727.2192655,2488
1749979727.2193353,2816
1749979727.2194026,3258
1749979727.219469,3555
1749979727.2195368,3616
1749979727.2196045,3456
1749979727.2196708,3171
1749979727.219732,2862
1749979727.2197967,2604
1749979727.219861,2418
1749979727.2199216,2426
1749979727.2199872,2703
1749979727.220055,3133
1749979727.2201228,3458
1749979727.2201903,3559
1749979727.2202587,3438
1749979727.2203255,3176
1749979727.220393,2866
1749979727.2204602,2596
1749979727.2205293,2393
1749979727.2205954,2363
1749979727.2206626,2609
1749979727.220729,3045
1749979727.2207959,3409
1749979727.220865,3544
1749979727.2209327,3446
1749979727.2209995,3190
1749979727.2210662,2876
1749979727.2211428,2596
1749979727.2212095,2372
1749979727.221277,2287
1749979727.221346,2469
1749979727.2214148,2881
1749979727.2214808,3282
1749979727.2215488,3473
1749979727.2216163,3422
1749979727.2216861,3186
1749979727.2217677,2874
1749979727.221835,2586
1749979727.2219067,2358
1749979727.2219791,2244
1749979727.2220497,2380
1749979727.2221215,2762
1749979727.2221894,3180
1749979727.2222583,3409
1749979727.2223263,3396
1749979727.2223935,3182
1749979727.2224605,2873
1749979727.2225325,2573
1749979727.2226007,2333
1749979727.222669,2188
1749979727.2227385,2274
1749979727.2228105,2621
1749979727.2228837,3052
1749979727.2229517,3322
1749979727.223021,3355
1749979727.2230995,3174
1749979727.2231684,2877
1749979727.2232294,2568
1749979727.2233555,2316
1749979727.2234273,2144
1749979727.2234938,2184
1749979727.22356,2495
1749979727.2236297,2939
1749979727.2236974,3253
1749979727.2237568,3332
1749979727.223825,3182
1749979727.2238863,2898
1749979727.2239485,2585
1749979727.2240155,2324
1749979727.2240841,2131
1749979727.2241538,2120
1749979727.2242212,2381
1749979727.2242882,2816
1749979727.22436,3162
1749979727.2244296,3281
1749979727.2244992,3165
1749979727.2245684,2899
1749979727.2246356,2587
1749979727.2247052,2322
1749979727.224774,2117
1749979727.224843,2066
1749979727.2249103,2283
1749979727.2249782,2707
1749979727.2250445,3086
1749979727.2251256,3246
1749979727.2251961,3165
1749979727.2252636,2914
1749979727.2253308,2599
1749979727.2254007,2320
1749979727.2254682,2103
1749979727.2255414,2014
1749979727.22561,2180
1749979727.225684,2577
1749979727.2257562,2976
1749979727.225824,3177
1749979727.2258947,3141
1749979727.2259624,2914
1749979727.2260313,2602
1749979727.2261012,2309
1749979727.2261696,2081
1749979727.2262366,1965
1749979727.226308,2089
1749979727.2263753,2459
1749979727.2264438,2874
1749979727.2265122,3111
1749979727.226584,3117
1749979727.226654,2919
1749979727.2267225,2618
1749979727.226793,2314
1749979727.2268615,2072
1749979727.2269468,1924
1749979727.2270176,2002
1749979727.2270882,2340
1749979727.2271624,2771
1749979727.2272418,3050
1749979727.2273135,3099
1749979727.227386,2931
1749979727.2274537,2642
1749979727.2275274,2330
1749979727.2276022,2075
1749979727.22767,1901
1749979727.2346559,1931
1749979727.2736182,2229
1749979727.2738576,2664
1749979727.2877228,2977
1749979727.3053677,3064
1749979727.319808,2927
1749979727.3199234,2653
1749979727.3200305,2341
1749979727.3201382,2077
1749979727.320245,1881
1749979727.3203506,1861
1749979727.3214498,2112
1749979727.3215616,2541
1749979727.3216684,2893
1749979727.3217957,3025
1749979727.321902,2926
1749979727.322007,2671
1749979727.3221123,2360
1749979727.3222175,2088
1749979727.322362,1879
1749979727.3224678,1819
1749979727.3225734,2023
1749979727.323431,2440
1749979727.323541,2824
1749979727.3239486,2998
1749979727.3242567,2939
1749979727.324417,2702
1749979727.3245237,2389
1749979727.3246477,2101
1749979727.3247547,1873
1749979727.3248606,1770
1749979727.3249667,1923
1749979727.3250942,2316
1749979727.3252006,2725
1749979727.325312,2939
1749979727.3254173,2914
1749979727.3255339,2694
1749979727.3256397,2386
1749979727.3257449,2094
1749979727.325851,1865
1749979727.3259678,1733
1749979727.3260736,1834
1749979727.3261786,2187
1749979727.3262832,2609
1749979727.3263998,2866
1749979727.3265045,2891
1749979727.3266091,2705
1749979727.3267138,2407
1749979727.3268306,2103
1749979727.3269365,1859
1749979727.3270414,1702
1749979727.3271718,1762
1749979727.3272429,2085
1749979727.3273146,2518
1749979727.3273854,2810
1749979727.3274555,2872
1749979727.3325222,2714
1749979727.3524694,2429
1749979727.3526354,2117
1749979727.3527195,1860
1749979727.354742,1677
1749979727.3548193,1687
1749979727.354893,1966
1749979727.3786328,2398
1749979727.4280725,2727
1749979727.4281902,2833
1749979727.428599,2714
1749979727.4348247,2447
1749979727.4350336,2133
1749979727.4380205,1870
1749979727.4380987,1678
1749979727.438172,1650
1749979727.4382443,1875
1749979727.438317,2279
1749979727.4383895,2626
1749979727.4384768,2774
1749979727.4385493,2703
1749979727.4392765,2463
1749979727.4393642,2146
1749979727.4394376,1864
1749979727.43951,1657
1749979727.4395814,1600
1749979727.4396539,1792
1749979727.4397254,2185
1749979727.439789,2556
1749979727.439855,2738
1749979727.4399238,2701
1749979727.4399831,2480
1749979727.440054,2165
1749979727.4401255,1867
1749979727.4401972,1645
1749979727.4402688,1558
1749979727.44593,1720
1749979727.4460108,2112
1749979727.4460852,2524
1749979727.4461584,2750
1749979727.4462316,2748
1749979727.4463038,2547
1749979727.446376,2244
1749979727.446449,1943
1749979727.446522,1710
1749979727.4465942,1580
1749979727.4466667,1677
1749979727.4467392,2018
1749979727.4468114,2432
1749979727.4468837,2695
1749979727.4469557,2739
1749979727.4470282,2572
1749979727.4471002,2278
1749979727.4471824,1958
1749979727.4472473,1698
1749979727.4473143,1535
1749979727.4473853,1590
1749979727.4474576,1903
1749979727.4475298,2329
1749979727.4476023,2626
1749979727.4476738,2709
1749979727.4477463,2579
1749979727.4478073,2307
1749979727.4478745,1986
1749979727.447941,1714
1749979727.4480124,1528
1749979727.448084,1542
1749979727.448156,1822
1749979727.4482281,2254
1749979727.4482994,2586
1749979727.4483707,2702
1749979727.448456,2599
1749979727.4485278,2345
1749979727.4485996,2027
1749979727.4486709,1747
1749979727.4487429,1540
1749979727.4488144,1504
1749979727.448886,1737
1749979727.4489574,2158
1749979727.4490297,2523
1749979727.449101,2679
1749979727.4491794,2613
1749979727.4492507,2376
1749979727.4495964,2059
1749979727.4496796,1765
1749979727.4497516,1538
1749979727.4498239,1456
1749979727.4498956,1629
1749979727.4499688,2018
1749979727.4500406,2400
1749979727.4501126,2596
1749979727.4501839,2578
1749979727.4502554,2374
1749979727.4503267,2066
1749979727.4503982,1762
1749979727.4504697,1529
1749979727.4505415,1431
1749979727.450613,1588
1749979727.4506843,1978
1749979727.4507556,2392
1749979727.4508271,2621
1749979727.450899,2628
1749979727.4509702,2442
1749979727.4510417,2148
1749979727.4511132,1842
1749979727.4511847,1592
1749979727.451256,1439
1749979727.4513276,1513
1749979727.4513988,1841
1749979727.4514704,2257
1749979727.4515417,2530
1749979727.4516134,2591
1749979727.4516847,2443
1749979727.4517634,2162
1749979727.451823,1842
1749979727.4518948,1578
1749979727.4519558,1411
1749979727.452027,1464
1749979727.4520986,1782
1749979727.4521708,2219
1749979727.4522424,2523
1749979727.452314,2604
1749979727.4523854,2475
1749979727.4524572,2213
1749979727.452529,1906
1749979727.4526002,1639
1749979727.4526718,1439
1749979727.4527435,1418
1749979727.452815,1670
1749979727.4528866,2099
1749979727.452958,2450
1749979727.4530299,2584
1749979727.4531033,2490
1749979727.4531753,2238
1749979727.453247,1928
1749979727.4533184,1658
1749979727.4533901,1455
1749979727.4534621,1402
1749979727.4535336,1605
1749979727.4536054,2012
1749979727.4536774,2386
1749979727.4537492,2560
1749979727.4538212,2509
1749979727.453893,2279
1749979727.453965,1963
1749979727.4540367,1671
1749979727.4541087,1449
1749979727.4541807,1364
1749979727.4542525,1530
1749979727.4543247,1919
1749979727.4543989,2315
1749979727.4544706,2525
1749979727.4545422,2513
1749979727.454614,2311
1749979727.4546857,2008
1749979727.4723442,1707
1749979727.5082057,1471
1749979727.5647733,1347
1749979727.57631,1459
1749979727.577342,1812
1749979727.577768,2223
1749979727.577877,2475
1749979727.5779827,2509
1749979727.578087,2335
1749979727.5781922,2039
1749979727.6549437,1727
1749979727.6551037,1485
1749979727.656576,1344
1749979727.658115,1419
1749979727.6582701,1739
1749979727.6584475,2156
1749979727.6586199,2437
1749979727.6587682,2505
1749979727.658918,2358
1749979727.6590638,2073
1749979727.6592486,1751
1749979727.6594002,1489
1749979727.6595736,1320
1749979727.6597323,1350
1749979727.6598756,1639
1749979727.6600187,2068
1749979727.6601615,2394
1749979727.6660392,2505
1749979727.6663842,2393
1749979727.6715324,2124
1749979727.6716125,1798
1749979727.671687,1519
1749979727.6718025,1324
1749979727.6718776,1308
1749979727.6719515,1555
1749979727.6720252,1979
1749979727.6720986,2336
1749979727.672198,2484
1749979727.6723127,2409
1749979727.6724086,2167
1749979727.6725152,1851
1749979727.672657,1569
1749979727.6727626,1357
1749979727.673057,1294
1749979727.673176,1488
1749979727.6733446,1893
1749979727.688611,2277
1749979727.70142,2466
1749979727.7015111,2429
1749979727.7015944,2208
1749979727.701681,1894
1749979727.7017717,1593
1749979727.741191,1359
1749979727.7875717,1258
1749979727.7876575,1417
1749979727.787992,1816
1749979727.788058,2236
1749979727.7881339,2460
1749979727.7884743,2449
1749979727.7885447,2244
1749979727.788614,1945
1749979727.7887263,1649
1749979727.7887979,1411
1749979727.7890096,1270
1749979727.7890778,1364
1749979727.7891479,1718
1749979727.7892168,2150
1749979727.7914515,2418
1749979727.7915394,2454
1749979727.791616,2281
1749979727.7928014,1993
1749979727.7929323,1688
1749979727.8173056,1435
1749979727.8278902,1264
1749979727.8279781,1313
1749979727.8283477,1636
1749979727.845487,2083
1749979727.8464575,2390
1749979727.8470693,2463
1749979727.8471496,2316
1749979727.850445,2041
1749979727.8521066,1734
1749979727.8522246,1474
1749979727.8523276,1283
1749979727.857953,1280
1749979727.8580627,1553
1749979727.8581855,1993
1749979727.8582997,2337
1749979727.8584146,2455
1749979727.8585207,2349
1749979727.8586261,2096
1749979727.8587308,1790
1749979727.858835,1521
1749979727.8589394,1313
1749979727.8590431,1267
1749979727.859147,1490
1749979727.8592508,1914
1749979727.859355,2286
1749979727.8594592,2442
1749979727.8595643,2368
1749979727.85967,2124
1749979727.8599045,1812
1749979727.8600786,1531
1749979727.8601851,1318
1749979727.860291,1241
1749979727.8608952,1416
1749979727.8610115,1808
1749979727.861356,2196
1749979727.861494,2394
1749979727.8616028,2371
1749979727.8621058,2158
1749979727.8622725,1848
1749979727.8623521,1551
1749979727.8624246,1324
1749979727.8627195,1219
1749979727.8627954,1355
1749979727.8628676,1722
1749979727.8629396,2125
1749979727.8630087,2358
1749979727.86308,2371
1749979727.8631516,2184
1749979727.8632233,1884
1749979727.863295,1578
1749979727.863366,1340
1749979727.8634355,1206
1749979727.8635068,1294
1749979727.863578,1628
1749979727.8636496,2046
1749979727.8637211,2319
1749979727.8637888,2375
1749979727.863848,2218
1749979727.8639166,1928
1749979727.863976,1610
1749979727.864045,1354
1749979727.864116,1187
1749979727.8641872,1222
1749979727.8642583,1511
1749979727.8643284,1928
1749979727.8643997,2237
1749979727.8644707,2338
1749979727.864542,2222
1749979727.864613,1956
1749979727.8646839,1640
1749979727.8647554,1380
1749979727.8648262,1205
1749979727.8648977,1209
1749979727.864969,1463
1749979727.8650396,1873
1749979727.8651211,2207
1749979727.8651924,2344
1749979727.8652635,2265
1749979727.8653345,2019
1749979727.8654058,1697
1749979727.8654766,1410
1749979727.8655477,1205
1749979727.8656187,1168
1749979727.8656898,1388
1749979727.865761,1802
1749979727.8658319,2175
1749979727.8659034,2351
1749979727.865981,2304
1749979727.8660526,2077
1749979727.8661237,1763
1749979727.866195,1472
1749979727.8662658,1257
1749979727.8663373,1177
1749979727.8664083,1341
1749979727.86648,1722
1749979727.8665514,2111
1749979727.8666224,2323
1749979727.8666937,2320
1749979727.8667645,2127
1749979727.8668332,1824
1749979727.8668923,1517
1749979727.8669627,1276
1749979727.8670344,1157
1749979727.867106,1290
1749979727.8671775,1672
1749979727.8672493,2105
1749979727.8673205,2357
1749979727.8673923,2376
1749979727.8674643,2193
1749979727.867536,1901
1749979727.8676078,1601
1749979727.867679,1358
1749979727.8677492,1202
1749979727.8678083,1266
1749979727.867875,1595
1749979727.8679538,2033
1749979727.86802,2330
1749979727.8680897,2398
1749979727.8681614,2247
1749979727.8682334,1967
1749979727.868305,1654
1749979727.8683763,1391
1749979727.8684595,1206
1749979727.8685312,1224
1749979727.868603,1515
1749979727.8686743,1956
1749979727.8687463,2287
1749979727.8688178,2393
1749979727.8688893,2276
1749979727.8689613,2016
1749979727.8690338,1706
1749979727.869105,1437
1749979727.8691776,1237
1749979727.8692498,1211
1749979727.8693216,1458
1749979727.8693933,1891
1749979727.869465,2252
1749979727.869537,2395
1749979727.869609,2311
1749979727.8696811,2066
1749979727.8697534,1756
1749979727.8698251,1475
1749979727.8699055,1258
1749979727.8699713,1189
1749979727.870039,1386
1749979727.870105,1800
1749979727.8701708,2189
1749979727.8702369,2371
1749979727.8703024,2324
1749979727.8703687,2102
1749979727.8992605,1797
1749979727.900185,1507
1749979727.9002793,1277
1749979727.910484,1168
1749979727.9108481,1314
1749979727.9112785,1702
1749979727.911681,2115
1749979727.9122038,2341
1749979727.9126062,2338
1749979727.9127746,2140
1749979727.9129415,1843
1749979727.913135,1546
1749979727.9133015,1308
1749979727.9134908,1174
1749979727.9136586,1276
1749979727.913825,1631
1749979727.9140148,2056
1749979727.9141796,2313
1749979727.9143655,2342
1749979727.9145331,2168
1749979727.9146981,1883
1749979727.914887,1581
1749979727.9150522,1331
1749979727.9152613,1162
1749979727.9154322,1210
1749979727.9155984,1530
1749979727.9157803,1973
1749979727.9159331,2278
1749979727.9162486,2348
1749979727.9163537,2196
1749979727.9164567,1916
1749979727.91656,1606
1749979727.916683,1347
1749979727.9167862,1158
1749979727.916907,1157
1749979727.9170263,1430
1749979727.9171538,1872
1749979727.917257,2217
1749979727.9173613,2334
1749979727.9174643,2220
1749979727.9184792,1958
1749979727.966621,1647
1749979727.985338,1378
1749979728.0133114,1172
1749979728.0368185,1128
1749979728.0382855,1355
1749979728.0398412,1786
1749979728.0399544,2165
1749979728.0627272,2326
1749979728.062826,2252
1749979728.062911,2010
1749979728.0632763,1703
1749979728.0657449,1426
1749979728.0658336,1209
1749979728.0659158,1127
1749979728.066474,1306
1749979728.0675528,1715
1749979728.0676694,2118
1749979728.0678937,2316
1749979728.068335,2279
1749979728.0684628,2059
1749979728.0685682,1759
1749979728.0686731,1475
1749979728.087231,1247
1749979728.0888276,1132
1749979728.089531,1272
1749979728.1152565,1669
1749979728.115342,2109
1749979728.1190138,2354
1749979728.1221135,2353
1749979728.1221912,2147
1749979728.1222637,1846
1749979728.1235225,1546
1749979728.1239288,1297
1749979728.1240458,1134
1749979728.1244621,1200
1749979728.1245706,1539
1749979728.1286674,1980
1749979728.128782,2268
1749979728.128888,2321
1749979728.1289926,2160
1749979728.129097,1883
1749979728.1292045,1588
1749979728.1293151,1343
1749979728.1294327,1171
1749979728.1295383,1207
1749979728.129643,1518
1749979728.129748,1968
1749979728.1298568,2289
1749979728.1299624,2373
1749979728.1300678,2231
1749979728.1301723,1956
1749979728.130277,1645
1749979728.130391,1379
1749979728.130498,1177
1749979728.130603,1158
1749979728.130708,1418
1749979728.1308298,1862
1749979728.130958,2220
1749979728.1310654,2348
1749979728.1311715,2245
1749979728.131276,1994
1749979728.1313882,1691
1749979728.1315298,1420
1749979728.1328177,1201
1749979728.1329832,1136
1749979728.1330895,1351
1749979728.1342814,1789
1749979728.1573908,2187
1749979728.1803954,2357
1749979728.2025666,2285
1749979728.2027948,2045
1749979728.2047884,1745
1749979728.204879,1472
1749979728.2049565,1247
1749979728.205034,1139
1749979728.2051814,1292
1749979728.2052639,1692
1749979728.2053401,2109
1749979728.2054605,2325
1749979728.2055874,2297
1749979728.2056675,2078
1749979728.2061927,1775
1749979728.2063508,1487
1749979728.2064896,1256
1749979728.2066197,1126
1749979728.206739,1238
1749979728.2068577,1609
1749979728.2070243,2043
1749979728.2071424,2299
1749979728.207266,2316
1749979728.2139087,2124
1749979728.2140028,1825
1749979728.2140803,1521
1749979728.2143762,1276
1749979728.21445,1122
1749979728.2145212,1191
1749979728.2145898,1524
1749979728.2146745,1961
1749979728.2157373,2250
1749979728.2419906,2308
1749979728.2539327,2151
1749979728.2548134,1870
1749979728.258803,1560
1749979728.2591832,1301
1749979728.2592928,1120
1749979728.2593966,1144
1749979728.2595005,1442
1749979728.259605,1886
1749979728.2597086,2213
1749979728.2598124,2315
1749979728.259916,2195
1749979728.2600203,1933
1749979728.2601233,1623
1749979728.2602267,1353
1749979728.2603297,1151
1749979728.2604332,1126
1749979728.260536,1374
1749979728.2606397,1806
1749979728.260743,2164
1749979728.2608457,2304
1749979728.2689745,2215
1749979728.269973,1965
1749979728.2700846,1652
1749979728.3362346,1371
1749979728.3363755,1156
1749979728.3364496,1093
1749979728.3365223,1298
1749979728.3365934,1720
1749979728.3366652,2114
1749979728.3367367,2298
1749979728.336808,2248
1749979728.4153478,2017
1749979728.4180856,1705
1749979728.4220192,1411
1749979728.422299,1178
1749979728.4233685,1072
1749979728.4234438,1224
1749979728.423517,1622
1749979728.42359,2043
1749979728.4236634,2271
1749979728.4237363,2261
1749979728.4238086,2055
1749979728.423882,1755
1749979728.4239483,1459
1749979728.4240217,1221
1749979728.4240944,1084
1749979728.4241676,1190
1749979728.4242396,1558
1749979728.4243317,2001
1749979728.4246392,2269
1749979728.4249432,2298
1749979728.4250178,2116
1749979728.4251375,1825
1749979728.4252129,1524
1749979728.425333,1274
1749979728.426792,1103
1749979728.4268694,1145
1749979728.426996,1461
1749979728.427071,1902
1749979728.4271452,2208
1749979728.427211,2281
1749979728.4272726,2133
1749979728.4273388,1856
1749979728.4274123,1550
1749979728.427485,1293
1749979728.428657,1105
1749979728.434582,1107
1749979728.4353704,1385
1749979728.4520252,1828
1749979728.4521382,2172
1749979728.452216,2286
1749979728.4530678,2167
1749979728.4534807,1900
1749979728.4536765,1588
1749979728.4801576,1321
1749979728.4802494,1121
1749979728.4861553,1084
1749979728.486231,1316
1749979728.4863052,1746
1749979728.486379,2120
1749979728.4864526,2274
1749979728.4865239,2195
1749979728.4975348,1950
1749979728.4976833,1642
1749979728.499194,1366
1749979728.4992824,1153
1749979728.5089571,1079
1749979728.5090406,1266
1749979728.5091195,1679
1749979728.509199,2081
1749979728.5092776,2279
1749979728.5093575,2241
1749979728.509436,2019
1749979728.5095153,1713
1749979728.5095942,1422
1749979728.5096729,1189
1749979728.5097513,1070
1749979728.509831,1203
1749979728.5099099,1588
1749979728.5099883,2015
1749979728.510069,2257
1749979728.5101528,2263
1749979728.5102315,2065
1749979728.510311,1765
1749979728.51039,1462
1749979728.5104733,1219
1749979728.5105517,1075
1749979728.51063,1166
1749979728.5107083,1521
1749979728.5107863,1962
1749979728.5108733,2241
1749979728.5109606,2285
1749979728.511046,2115
1749979728.5111268,1828
1749979728.511206,1521
1749979728.5113168,1270
1749979728.5113957,1102
1749979728.5114741,1142
1749979728.5115523,1448
1749979728.5116305,1884
1749979728.5117087,2197
1749979728.5117905,2287
1749979728.511858,2157
1749979728.5119271,1885
1749979728.5119894,1571
1749979728.5120673,1303
1749979728.5121458,1111
1749979728.5122237,1104
1749979728.5123012,1366
1749979728.5123792,1796
1749979728.5124576,2139
1749979728.5125356,2267
1749979728.5126135,2169
1749979728.5126915,1916
1749979728.51277,1602
1749979728.5128505,1324
1749979728.5129173,1116
1749979728.5129852,1074
1749979728.5130527,1308
1749979728.51312,1745
1749979728.513188,2128
1749979728.513263,2286
1749979728.5133407,2208
1749979728.5134187,1965
1749979728.5134969,1656
1749979728.5135748,1374
1749979728.5136528,1147
1749979728.5137308,1049
1749979728.513809,1216
1749979728.5138872,1626
1749979728.5139668,2045
1749979728.5386002,2260
1749979728.6112578,2233
1749979728.6113527,2016
1749979728.6114244,1713
1749979728.6114988,1421
1749979728.6115727,1186
1749979728.611646,1057
1749979728.6117191,1178
1749979728.6118093,1559
1749979728.6230385,1994
1749979728.623151,2247
1749979728.623258,2260
1749979728.6233635,2072
1749979728.6234694,1782
1749979728.6235743,1485
1749979728.6236792,1239
1749979728.623878,1081
1749979728.6240337,1151
1749979728.6241393,1495
1749979728.6242442,1942
1749979728.6243496,2234
1749979728.6244552,2288
1749979728.6245604,2127
1749979728.6246653,1847
1749979728.6247704,1543
1749979728.6248813,1286
1749979728.6249862,1101
1749979728.625119,1120
1749979728.6252253,1418
1749979728.62535,1863
1749979728.625455,2189
1749979728.6255596,2282
1749979728.625664,2152
1749979728.6257684,1889
1749979728.6258721,1586
1749979728.6259763,1325
1749979728.6260808,1125
1749979728.6261852,1102
1749979728.6262896,1359
1749979728.6263936,1802
1749979728.6264977,2165
1749979728.6266024,2295
1749979728.6267073,2195
1749979728.6268206,1946
1749979728.6269252,1647
1749979728.6270294,1380
1749979728.6271336,1163
1749979728.6272378,1086
1749979728.6273422,1279
1749979728.6274462,1699
1749979728.6275504,2096
1749979728.6276546,2279
1749979728.6278222,2223
1749979728.646385,1991
1749979728.6581473,1688
1749979728.6582694,1411
1749979728.6583765,1191
1749979728.658706,1089
1749979728.6590886,1240
1749979728.6591964,1632
1749979728.6593022,2047
1749979728.659585,2269
1749979728.6597145,2256
1749979728.6599119,2047
1749979728.6600165,1742
1749979728.6601202,1445
1749979728.660224,1209
1749979728.6603408,1079
1749979728.6604452,1186
1749979728.6605499,1546
1749979728.6606545,1972
1749979728.6607592,2229
1749979728.660864,2258
1749979728.6609683,2084
1749979728.661073,1798
1749979728.6611767,1497
1749979728.6612809,1251
1749979728.6613855,1090
1749979728.6614892,1147
1749979728.6615932,1472
1749979728.6617026,1911
1749979728.6618264,2209
1749979728.6619313,2279
1749979728.662035,2130
1749979728.6621387,1855
1749979728.6622558,1550
1749979728.6662462,1295
1749979728.66636,1111
1749979728.666465,1117
1749979728.6665707,1391
1749979728.6666758,1825
1749979728.6667793,2158
1749979728.6668835,2271
1749979728.6669877,2161
1749979728.6670926,1903
1749979728.6671958,1595
1749979728.6673,1329
1749979728.6674042,1129
1749979728.667521,1097
1749979728.6677043,1331
1749979728.6681018,1755
1749979728.6776311,2119
1749979728.6777174,2271
1749979728.6812918,2198
1749979728.7440789,1958
1749979728.7597382,1645
1749979728.7598138,1362
1749979728.7598822,1146
1749979728.759949,1073
1749979728.7669716,1254
1749979728.8072126,1648
1749979728.8074324,2029
1749979728.8092594,2222
1749979728.8094704,2195
1749979728.8153665,1983
1749979728.817686,1674
1749979728.8295262,1380
1749979728.8329709,1161
1749979728.833053,1073
1749979728.8331265,1227
1749979728.8332155,1606
1749979728.8332946,2007
1749979728.8333743,2232
1749979728.8335192,2240
1749979728.8336062,2054
1749979728.8336782,1757
1749979728.8337507,1447
1749979728.8338225,1197
1749979728.8338938,1057
1749979728.833966,1159
1749979728.8340378,1522
1749979728.8341088,1961
1749979728.8341804,2230
1749979728.834252,2266
1749979728.8343232,2094
1749979728.8343947,1810
1749979728.8344657,1508
1749979728.8345377,1254
1749979728.8346095,1077
1749979728.834681,1111
1749979728.8347526,1424
1749979728.834824,1872
1749979728.8348958,2190
1749979728.8349679,2272
1749979728.8350394,2131
1749979728.8351207,1861
1749979728.835193,1558
1749979728.8352642,1297
1749979728.835336,1098
1749979728.8354073,1083
1749979728.8354795,1349
1749979728.8355515,1794
1749979728.8356233,2148
1749979728.8356948,2269
1749979728.8357666,2157
1749979728.8358386,1895
1749979728.8660522,1586
1749979728.866181,1319
1749979728.8662643,1113
1749979728.8663442,1064
1749979728.8664265,1287
1749979728.8665085,1721
1749979728.8665884,2108
1749979728.8666775,2274
1749979728.8667612,2201
1749979728.8668416,1958
1749979728.866922,1648
1749979728.867002,1368
1749979728.8670826,1148
1749979728.8671618,1062
1749979728.8672423,1239
1749979728.8673224,1653
1749979728.8674104,2071
1749979728.8675256,2285
1749979728.8680563,2258
1749979728.8682392,2038
1749979728.8683555,1728
1749979728.8923082,1430
1749979728.9007168,1193
1749979728.9078581,1068
1749979728.934234,1189
1749979728.9404771,1565
1749979728.9528887,1994
1749979728.952969,2245
1749979729.0136402,2260
1749979729.0863922,2071
1749979729.1252224,1776
1749979729.1303573,1475
1749979729.13187,1231
1749979729.1327145,1078
1749979729.1328766,1152
1749979729.1330264,1493
1749979729.1336093,1935
1749979729.1343324,2226
1749979729.1344876,2283
1749979729.1346366,2121
1749979729.134785,1836
1749979729.134933,1526
1749979729.1350973,1270
1749979729.1352727,1092
1749979729.1354218,1118
1749979729.1355681,1416
1749979729.1362872,1858
1749979729.137325,2184
1749979729.1374764,2284
1749979729.137676,2159
1749979729.1404219,1892
1749979729.1405764,1581
1749979729.1407292,1313
1749979729.1408765,1117
1749979729.1410224,1104
1749979729.1411688,1366
1749979729.1413217,1807
1749979729.1414735,2165
1749979729.1416216,2297
1749979729.1417887,2200
1749979729.1419544,1947
1749979729.142101,1634
1749979729.142247,1352
1749979729.1423936,1132
1749979729.1425397,1068
1749979729.1426857,1279
1749979729.142832,1709
1749979729.1429782,2106
1749979729.1431792,2288
1749979729.1433284,2233
1749979729.1434758,1998
1749979729.143622,1686
1749979729.1437685,1395
1749979729.147668,1167
1749979729.1488643,1068
1749979729.1490371,1227
1749979729.1491878,1628
1749979729.149366,2047
1749979729.1495216,2274
1749979729.1498017,2264
1749979729.1499224,2054
1749979729.1500335,1743
1749979729.1518352,1438
1749979729.1553664,1196
1749979729.1566122,1068
1749979729.1908042,1183
1749979729.1908844,1552
1749979729.1909585,1983
1749979729.2322679,2243
1749979729.232512,2270
1749979729.2326152,2088
1749979729.232715,1790
1749979729.2328136,1478
1749979729.232912,1222
1749979729.2330105,1058
1749979729.2331095,1121
1749979729.2332084,1457
1749979729.2333071,1905
1749979729.2334056,2208
1749979729.2335045,2275
1749979729.2336035,2120
1749979729.2337022,1836
1749979729.2338006,1523
1749979729.2338994,1260
1749979729.2339978,1073
1749979729.234096,1089
1749979729.2469125,1386
1749979729.2659025,1842
1749979729.2664764,2187
1749979729.288372,2294
1749979729.2915075,2167
1749979729.32496,1895
1749979729.3250744,1581
1749979729.3251524,1312
1749979729.325221,1106
1749979729.325398,1068
1749979729.3254776,1308
1749979729.3255541,1748
1749979729.3256295,2125
1749979729.3257048,2277
1749979729.3257785,2192
1749979729.3258517,1947
1749979729.3259273,1642
1749979729.3260927,1370
1749979729.3261745,1155
1749979729.32625,1085
1749979729.3263257,1289
1749979729.3264005,1725
1749979729.3264756,2138
1749979729.3265505,2327
1749979729.3266256,2268
1749979729.3267064,2028
1749979729.3267815,1715
1749979729.326856,1423
1749979729.3269305,1185
1749979729.327005,1061
1749979729.32708,1191
1749979729.3271544,1578
1749979729.3272288,2005
1749979729.3273027,2244
1749979729.3273764,2244
1749979729.3274477,2042
1749979729.3275197,1744
1749979729.3275912,1450
1749979729.3276627,1213
1749979729.3277328,1075
1749979729.3277926,1173
1749979729.327863,1534
1749979729.3279345,1974
1749979729.3280058,2243
1749979729.3280773,2274
1749979729.328149,2093
1749979729.3282204,1802
1749979729.3282917,1499
1749979729.3283627,1249
1749979729.3284926,1079
1749979729.3285654,1127
1749979729.3286371,1451
1749979729.3287172,1904
1749979729.3287892,2219
1749979729.328861,2295
1749979729.3289323,2144
1749979729.3290048,1864
1749979729.329076,1553
1749979729.3291476,1288
1749979729.329219,1091
1749979729.329291,1082
1749979729.3293622,1353
1749979729.3294337,1799
1749979729.329505,2153
1749979729.3295765,2278
1749979729.329648,2170
1749979729.32972,1909
1749979729.3297915,1596
1749979729.3298626,1322
1749979729.3299341,1113
1749979729.3300056,1068
1749979729.3300772,1297
1749979729.3301497,1730
1749979729.3302217,2112
1749979729.330293,2273
1749979729.3303645,2199
1749979729.3304365,1957
1749979729.330508,1647
1749979729.3305807,1366
1749979729.3306546,1142
1749979729.3307266,1053
1749979729.3307986,1230
1749979729.3308704,1641
1749979729.3309417,2050
1749979729.3310137,2252
1749979729.3310847,2213
1749979729.3311565,1985
1749979729.331232,1676
1749979729.3313067,1387
1749979729.3313816,1156
1749979729.3314564,1036
1749979729.3315315,1162
1749979729.3479645,1544
1749979729.3516555,1976
1749979729.351748,2227
1749979729.351812,2239
1749979729.3518844,2044
1749979729.3519459,1744
1749979729.3520517,1442
1749979729.3521576,1199
1749979729.3522782,1051
1749979729.352384,1134
1749979729.3524885,1482
1749979729.3525932,1923
1749979729.3526976,2206
1749979729.3528028,2253
1749979729.3660583,2082
1749979729.3691366,1792
1749979729.391347,1483
1749979729.5254695,1231
1749979729.5273826,1057
1749979729.5274892,1089
1749979729.5275946,1393
1749979729.5276988,1839
1749979729.5278027,2165
1749979729.527906,2259
1749979729.5280094,2124
1749979729.5281136,1847
1749979729.528217,1532
1749979729.5283206,1265
1749979729.5284314,1071
1749979729.5329134,1060
1749979729.5332754,1321
1749979729.5336084,1759
1749979729.561525,2115
1749979729.5618906,2251
1749979729.5796385,2155
1749979729.596166,1898
1749979729.5963166,1579
1749979729.596401,1299
1749979729.596483,1090
1749979729.5965643,1041
1749979729.5966454,1257
1749979729.5967257,1676
1749979729.5968037,2056
1749979729.5968838,2228
1749979729.5969641,2174
1749979729.6040046,1943
1749979729.6141906,1627
1749979729.614291,1331
1749979729.614371,1105
1749979729.614446,1021
1749979729.6145191,1197
1749979729.6145954,1599
1749979729.6146684,2006
1749979729.61474,2219
1749979729.6148124,2204
1749979729.614926,1996
1749979729.6154823,1688
1749979729.615583,1386
1749979729.615656,1152
1749979729.6157427,1034
1749979729.6158094,1155
1749979729.6158757,1517
1749979729.6159444,1930
1749979729.616015,2176
1749979729.6160872,2200
1749979729.6161597,2020
1749979729.6162324,1723
1749979729.6163049,1409
1749979729.6163766,1155
1749979729.621869,1007
1749979729.6542156,1095
1749979729.6648304,1452
1749979729.6916337,1907
1749979729.6923313,2204
1749979729.6926053,2262
1749979729.692872,2101
1749979729.6931384,1816
1749979729.6934037,1506
1749979729.6936677,1248
1749979729.6939242,1065
1749979729.694183,1083
1749979729.6944406,1374
1749979729.6946971,1819
1749979729.694954,2159
1749979729.695392,2273
1749979729.7161407,2156
1749979729.7165048,1887
1749979729.7168818,1566
1749979729.7172341,1290
1749979729.7178457,1088
1749979729.753603,1060
1749979729.7791731,1296
1749979729.7873468,1713
1749979729.7874384,2066
1749979729.7875159,2218
1749979729.8005242,2150
1749979729.8006067,1911
1749979729.8273473,1591
1749979729.8274767,1297
1749979729.8275952,1081
1749979729.8276982,1033
1749979729.8278046,1258
1749979729.8279078,1688
1749979729.828022,2078
1749979729.8281333,2258
1749979729.8282447,2208
1749979729.8283582,1979
1749979729.8295217,1663
1749979729.8296041,1365
1749979729.829682,1137
1749979729.8297675,1041
1749979729.82985,1193
1749979729.8300555,1572
1749979729.8301334,1972
1749979729.8302102,2197
1749979729.8302925,2207
1749979729.8303688,2021
1749979729.8304455,1717
1749979729.8305223,1401
1749979729.8306007,1150
1749979729.8306775,1022
1749979729.8307538,1144
1749979729.83083,1520
1749979729.8309052,1957
1749979729.8309824,2223
1749979729.831059,2259
1749979729.831137,2083
1749979729.8312135,1786
1749979729.8312898,1469
1749979729.8313627,1211
1749979729.831429,1048
1749979729.8456125,1107
1749979729.847252,1432
1749979729.8749802,1873
