1749981149.0519524,2286
1749981149.1427858,2023
1749981149.1510522,1748
1749981149.1522825,1524
1749981149.1532323,1359
1749981149.154145,1368
1749981149.1552687,1634
1749981149.15619,2048
1749981149.1573157,2358
1749981149.1585333,2446
1749981149.16003,2320
1749981149.1610909,2068
1749981149.1622536,1784
1749981149.1633477,1545
1749981149.1643646,1366
1749981149.1665165,1337
1749981149.1697726,1558
1749981149.1738386,1958
1749981149.1770647,2298
1749981149.1830003,2430
1749981149.185223,2346
1749981149.1878796,2108
1749981149.1900005,1813
1749981149.1932647,1560
1749981149.1956246,1378
1749981149.1983492,1327
1749981149.200736,1506
1749981149.2044096,1870
1749981149.2068732,2212
1749981149.2093196,2375
1749981149.2121727,2340
1749981149.2155101,2139
1749981149.218349,1852
1749981149.2212949,1581
1749981149.22417,1382
1749981149.2271733,1305
1749981149.2295506,1450
1749981149.2324028,1796
1749981149.2356353,2157
1749981149.238638,2353
1749981149.240469,2355
1749981149.2426815,2178
1749981149.2481475,1896
1749981149.2505164,1606
1749981149.2528985,1388
1749981149.2555773,1281
1749981149.2595909,1389
1749981149.2626548,1715
1749981149.265019,2098
1749981149.2671123,2333
1749981149.2709851,2373
1749981149.2741258,2223
1749981149.275918,1953
1749981149.2772725,1655
1749981149.279092,1422
1749981149.2815166,1287
1749981149.283243,1352
1749981149.2846699,1645
1749981149.2871914,2034
1749981149.2901886,2300
1749981149.2931533,2372
1749981149.2962382,2252
1749981149.3000386,2001
1749981149.3041923,1702
1749981149.3068264,1455
1749981149.3099866,1295
1749981149.3128066,1315
1749981149.3152843,1572
1749981149.3177917,1964
1749981149.320247,2266
1749981149.3230224,2378
1749981149.3259964,2294
1749981149.3287315,2061
1749981149.331849,1758
1749981149.3349547,1490
1749981149.3372033,1306
1749981149.339271,1286
1749981149.3418446,1508
1749981149.3448071,1895
1749981149.3479042,2227
1749981149.3554635,2370
1749981149.443662,2318
1749981149.5205324,2104
1749981149.5741699,1808
1749981149.5742817,1533
1749981149.5743885,1334
1749981149.5744941,1276
1749981149.5745986,1454
1749981149.5747037,1823
1749981149.5748086,2181
1749981149.5749135,2364
1749981149.7423604,2350
1749981150.0681622,2163
1749981150.124021,1876
1749981150.1265292,1587
1749981150.132071,1370
1749981150.132197,1274
1749981150.1323035,1406
1749981150.1324081,1751
1749981150.1325133,2128
1749981150.1326659,2345
1749981150.1327753,2364
1749981150.1328802,2202
1749981150.1329842,1931
1749981150.1330886,1642
1749981150.1332242,1416
1749981150.1333673,1294
1749981150.133491,1381
1749981150.1340199,1695
1749981150.1341832,2085
1749981150.134454,2337
1749981150.1345618,2393
1749981150.134667,2261
1749981150.1347868,2004
1749981150.1349578,1707
1749981150.135127,1466
1749981150.135364,1314
1749981150.135488,1357
1749981150.135593,1637
1749981150.1357937,2034
1749981150.1359005,2317
1749981150.1360152,2402
1749981150.1361196,2292
1749981150.1362236,2047
1749981150.1363275,1750
1749981150.1364527,1496
1749981150.136557,1320
1749981150.1366618,1314
1749981150.1367629,1554
1749981150.1368644,1950
1749981150.1369662,2272
1749981150.137068,2397
1749981150.1371698,2319
1749981150.1372714,2090
1749981150.1373732,1795
1749981150.2054348,1533
1749981150.2307143,1342
1749981150.2634313,1297
1749981150.316239,1494
1749981150.3673587,1879
1749981150.383977,2232
1749981150.3842208,2395
1749981150.3888667,2351
1749981150.3895655,2142
1749981150.3896556,1852
1749981150.3897262,1581
1749981150.3898077,1377
1749981150.3898897,1296
1749981150.389972,1445
1749981150.3900921,1802
1749981150.3924196,2172
1749981150.3924987,2370
1749981150.3925743,2366
1749981150.392649,2184
1749981150.392761,1904
1749981150.3967497,1620
1749981150.3970287,1403
1749981150.3973017,1295
1749981150.3977516,1408
1749981150.3980558,1744
1749981150.3986282,2132
1749981150.398971,2361
1749981150.3993201,2386
1749981150.399393,2228
1749981150.3994658,1965
1749981150.3995373,1680
1749981150.3996139,1445
1749981150.3996856,1295
1749981150.3997571,1357
1749981150.3998287,1677
1749981150.3999002,2105
1749981150.3999712,2385
1749981150.400043,2435
1749981150.4001148,2286
1749981150.4001863,2039
1749981150.400258,1769
1749981150.400329,1525
1749981150.4004006,1328
1749981150.4004724,1327
1749981150.4005435,1637
1749981150.400615,2132
1749981150.4006858,2493
1749981150.4007573,2564
1749981150.4008284,2394
1749981150.4008996,2135
1749981150.400971,1892
1749981150.4010513,1679
1749981150.4011226,1458
1749981150.401194,1348
1749981150.4012656,1532
1749981150.4013367,1975
1749981150.4014082,2382
1749981150.4014795,2531
1749981150.401551,2421
1749981150.401637,2175
1749981150.4016979,1918
1749981150.4017649,1700
1749981150.4018364,1496
1749981150.401908,1374
1749981150.4019797,1502
1749981150.402051,1884
1749981150.402123,2278
1749981150.4021943,2458
1749981150.4022655,2399
1749981150.4023368,2175
1749981150.402408,1902
1749981150.4024794,1657
1749981150.4025505,1459
1749981150.4026217,1348
1749981150.402693,1468
1749981150.4027643,1829
1749981150.402836,2228
1749981150.4029071,2435
1749981150.412693,2414
1749981150.4286346,2220
1749981150.4319427,1957
1749981150.432057,1700
1749981150.432166,1490
1749981150.4322755,1351
1749981150.4323857,1425
1749981150.4324954,1752
1749981150.4326103,2167
1749981150.4327195,2417
1749981150.4328284,2436
1749981150.4329083,2264
1749981150.432983,2003
1749981150.433057,1739
1749981150.4331315,1522
1749981150.4332056,1362
1749981150.4332802,1383
1749981150.433355,1662
1749981150.4334295,2077
1749981150.4335036,2372
1749981150.4335778,2440
1749981150.4336483,2303
1749981150.433711,2055
1749981150.4337802,1785
1749981150.4338553,1559
1749981150.433929,1384
1749981150.4340026,1366
1749981150.4342916,1607
1749981150.4343948,2020
1749981150.4344714,2350
1749981150.4345462,2454
1749981150.4346204,2344
1749981150.4346948,2105
1749981150.4347687,1831
1749981150.4348419,1593
1749981150.4349926,1401
1749981150.4382582,1335
1749981150.439244,1523
1749981150.440421,1919
1749981150.4405017,2282
1749981150.4408638,2432
1749981150.4411125,2359
1749981150.441828,2133
1749981150.4476848,1858
1749981150.447774,1613
1749981150.4478538,1417
1749981150.447932,1323
1749981150.448047,1463
1749981150.4481258,1832
1749981150.4482038,2218
1749981150.4482994,2411
1749981150.4483736,2381
1749981150.4484506,2179
1749981150.4485276,1910
1749981150.4486048,1656
1749981150.4486814,1448
1749981150.4487631,1318
1749981150.4488413,1407
1749981150.4489188,1746
1749981150.4489963,2153
1749981150.4490728,2388
1749981150.4491496,2391
1749981150.4492269,2205
1749981150.465037,1941
1749981150.4656413,1685
1749981150.4657276,1480
1749981150.4658008,1333
1749981150.4658737,1377
1749981150.4659472,1679
1749981150.466019,2098
1749981150.4660907,2378
1749981150.4661624,2426
1749981150.4662344,2269
1749981150.466307,2011
1749981150.4663827,1744
1749981150.4664557,1526
1749981150.4665315,1360
1749981150.4666035,1361
1749981150.4666755,1620
1749981150.466747,2035
1749981150.4668195,2350
1749981150.466895,2440
1749981150.466967,2316
1749981150.4670393,2067
1749981150.467132,1789
1749981150.46721,1556
1749981150.467279,1378
1749981150.4673505,1342
1749981150.4674225,1557
1749981150.4674938,1956
1749981150.4675653,2297
1749981150.4676373,2428
1749981150.4677076,2347
1749981150.4702199,2121
1749981150.4749472,1843
1749981150.4750288,1595
1749981150.475102,1400
1749981150.4751685,1328
1749981150.4752414,1501
1749981150.4753144,1885
1749981150.4753873,2253
1749981150.4754603,2421
1749981150.475533,2373
1749981150.4756052,2166
1749981150.4756794,1893
1749981150.475758,1635
1749981150.4758308,1425
1749981150.4759028,1316
1749981150.4759748,1442
1749981150.4760466,1805
1749981150.476119,2200
1749981150.4761908,2408
1749981150.4762633,2392
1749981150.476335,2203
1749981150.4764068,1939
1749981150.476478,1683
1749981150.4765499,1475
1749981150.4766223,1340
1749981150.4766943,1412
1749981150.4767659,1729
1749981150.4768379,2132
1749981150.4769094,2381
1749981150.4769819,2409
1749981150.4770534,2243
1749981150.4771252,1979
1749981150.4771974,1705
1749981150.4772692,1483
1749981150.477341,1331
1749981150.477413,1367
1749981150.4774842,1655
1749981150.4775565,2068
1749981150.4776292,2355
1749981150.4777021,2420
1749981150.4777825,2283
1749981150.4778557,2033
1749981150.4779289,1758
1749981150.4780025,1530
1749981150.4780757,1357
1749981150.4781492,1344
1749981150.4782224,1585
1749981150.47889,1993
1749981150.4789636,2320
1749981150.4790363,2430
1749981150.4791102,2326
1749981150.4791837,2084
1749981150.4792569,1799
1749981150.47933,1555
1749981150.479403,1367
1749981150.4794755,1316
1749981150.4795485,1514
1749981150.4796226,1910
1749981150.4797077,2268
1749981150.4797812,2418
1749981150.4798546,2352
1749981150.479926,2131
1749981150.4799993,1851
1749981150.4800725,1598
1749981150.4801455,1399
1749981150.4802184,1310
1749981150.4802911,1459
1749981150.480363,1830
1749981150.4804356,2211
1749981150.480509,2403
1749981150.480583,2379
1749981150.480656,2184
1749981150.4807286,1912
1749981150.4808006,1647
1749981150.480873,1435
1749981150.4809465,1315
1749981150.4810195,1422
1749981150.4810925,1769
1749981150.4811654,2173
1749981150.4812367,2402
1749981150.4813097,2407
1749981150.481383,2222
1749981150.4814568,1948
1749981150.48153,1676
1749981150.4816034,1463
1749981150.4816768,1328
1749981150.48175,1389
1749981150.4818237,1686
1749981150.4818974,2083
1749981150.4819708,2348
1749981150.5815113,2405
1749981150.587813,2264
1749981150.5879338,2001
1749981150.5880089,1706
1749981150.588302,1467
1749981150.6331723,1309
1749981150.633314,1333
1749981150.633422,1596
1749981150.6335273,1988
1749981150.6336315,2279
1749981150.6337385,2375
1749981150.6338437,2272
1749981150.6339495,2027
1749981150.6340547,1726
1749981150.6341743,1473
1749981150.6342797,1307
1749981150.6343844,1308
1749981150.6344886,1545
1749981150.6347115,1932
1749981150.6348772,2251
1749981150.638807,2383
1749981150.6399984,2319
1749981150.6400845,2097
1749981150.640165,1795
1749981150.640245,1522
1749981150.640324,1332
1749981150.6404033,1293
1749981150.6404822,1489
1749981150.6405575,1862
1749981150.6406322,2206
1749981150.6407063,2373
1749981150.6407804,2345
1749981150.6408546,2146
1749981150.6409345,1848
1749981150.6410086,1559
1749981150.6410828,1349
1749981150.641227,1274
1749981150.6413054,1432
1749981150.6413827,1792
1749981150.6414602,2166
1749981150.6415372,2371
1749981150.6416466,2378
1749981150.6417115,2202
1749981150.6417892,1918
1749981150.6418664,1622
1749981150.6419435,1394
1749981150.6420205,1277
1749981150.6421127,1381
1749981150.64219,1711
1749981150.6422684,2105
1749981150.642346,2351
1749981150.6424224,2394
1749981150.642575,2242
1749981150.6428099,1969
1749981150.6429584,1668
1749981150.6431055,1431
1749981150.6433442,1290
1749981150.643507,1350
1749981150.6436515,1647
1749981150.643798,2049
1749981150.6439533,2328
1749981150.6440976,2405
1749981150.644173,2281
1749981150.6442487,2024
1749981150.6443295,1723
1749981150.6529293,1473
1749981150.6530576,1306
1749981150.6533284,1316
1749981150.6534526,1569
1749981150.653559,1968
1749981150.6537867,2282
1749981150.653872,2401
1749981150.6539712,2313
1749981150.6540585,2072
1749981150.654144,1766
1749981150.6542294,1502
1749981150.6543152,1320
1749981150.6544302,1299
1749981150.713735,1518
1749981150.7141871,1907
1749981150.7146146,2247
1749981150.714757,2396
1749981150.714896,2342
1749981150.715051,2122
1749981150.715199,1821
1749981150.7332644,1543
1749981150.7335598,1345
1749981150.7336361,1288
1749981150.733791,1467
1749981150.7338936,1841
1749981150.7414424,2205
1749981150.7415352,2390
1749981150.7416308,2375
1749981150.7417042,2182
1749981150.7417717,1891
1749981150.7418497,1602
1749981150.7422829,1385
1749981150.7440054,1289
1749981150.7450864,1420
1749981150.7451854,1765
1749981150.7452593,2145
1749981150.745332,2367
1749981150.7454047,2392
1749981150.7454772,2231
1749981150.745549,1955
1749981150.7456214,1660
1749981150.745694,1430
1749981150.7458003,1307
1749981150.7458735,1397
1749981150.745973,1714
1749981150.7460535,2107
1749981150.7461262,2359
1749981150.746199,2411
1749981150.746271,2269
1749981150.7463439,2001
1749981150.7464159,1699
1749981150.7464879,1458
1749981150.7465594,1311
1749981150.7466314,1358
1749981150.7467036,1642
1749981150.7467754,2044
1749981150.7468646,2335
1749981150.7469387,2427
1749981150.7470112,2317
1749981150.7470827,2066
1749981150.747157,1761
1749981150.7472203,1505
1749981150.747284,1332
1749981150.7473564,1327
1749981150.7474287,1561
1749981150.7475,1950
1749981150.7475722,2269
1749981150.7476451,2398
1749981150.7477171,2328
1749981150.747789,2105
1749981150.7478604,1809
1749981150.7479327,1544
1749981150.7480042,1353
1749981150.7480757,1307
1749981150.7481477,1498
1749981150.7482197,1874
1749981150.7483091,2221
1749981150.7483814,2387
1749981150.748453,2351
1749981150.7485251,2144
1749981150.7485967,1849
1749981150.748668,1572
1749981150.7487392,1374
1749981150.7488115,1307
1749981150.748883,1470
1749981150.7489548,1830
1749981150.7490273,2195
1749981150.749104,2390
1749981150.7491765,2386
1749981150.7492478,2202
1749981150.7493193,1913
1749981150.7493916,1620
1749981150.749463,1400
1749981150.7495346,1294
1749981150.7496068,1407
1749981150.7496693,1739
1749981150.7497423,2123
1749981150.7498171,2357
1749981150.794269,2393
1749981150.8260286,2242
1749981150.8498545,1975
1749981150.850013,1682
1749981150.8504806,1450
1749981150.8506312,1313
1749981150.8507779,1378
1749981150.8509245,1677
1749981150.8510704,2074
1749981150.8513148,2345
1749981150.8514667,2415
1749981150.8516266,2289
1749981150.8650215,2031
1749981150.8705583,1732
1749981150.8706546,1486
1749981150.870729,1326
1749981150.870803,1345
1749981150.870876,1604
1749981150.8709576,1999
1749981150.9194124,2302
1749981150.928069,2409
1749981150.92915,2316
1749981150.9431856,2078
1749981150.968088,1781
1749981150.9681816,1528
1749981150.9726663,1355
1749981150.9727705,1337
1749981150.9728513,1555
1749981150.9729438,1935
1749981150.9733236,2261
1749981150.973405,2404
1749981150.9735303,2350
1749981150.973611,2136
1749981150.973675,1842
1749981150.9737456,1574
1749981150.973823,1382
1749981150.9739003,1328
1749981150.9739776,1506
1749981150.9740548,1871
1749981150.9741318,2220
1749981150.9742088,2395
1749981150.9742856,2377
1749981150.9743624,2187
1749981150.9744394,1900
1749981150.9745166,1619
1749981150.974794,1413
1749981150.9748704,1329
1749981150.974953,1466
1749981150.9750297,1806
1749981150.975106,2171
1749981150.975188,2380
1749981150.9752538,2400
1749981150.9753199,2237
1749981150.9753861,1962
1749981150.975451,1671
1749981150.9755163,1450
1749981150.9755824,1336
1749981150.975648,1427
1749981150.975716,1734
1749981150.9757822,2109
1749981150.9758475,2350
1749981150.9759135,2401
1749981150.975981,2263
1749981150.9760478,1999
1749981150.9761145,1703
1749981150.9761803,1471
1749981150.9762466,1335
1749981150.9763114,1386
1749981150.9763772,1663
1749981150.9764435,2050
1749981150.9765105,2330
1749981150.9765759,2420
1749981150.9766428,2313
1749981150.9767091,2064
1749981150.976775,1759
1749981150.9768424,1507
1749981150.9769096,1343
1749981150.9769752,1349
1749981150.9770405,1587
1749981150.9771063,1968
1749981150.9771817,2275
1749981150.9772477,2399
1749981150.9773138,2329
1749981150.97738,2106
1749981150.9774468,1810
1749981150.9775133,1547
1749981150.9775808,1365
1749981150.977647,1333
1749981150.9777164,1533
1749981150.9777858,1904
1749981150.9778554,2238
1749981150.977925,2393
1749981150.9817631,2355
1749981150.982004,2153
1749981150.9821591,1863
1749981150.982631,1588
1749981150.982719,1389
1749981150.9827979,1320
1749981150.9828768,1479
1749981150.9829552,1834
1749981150.983042,2192
1749981150.9831197,2381
1749981150.983191,2376
1749981150.9832528,2195
1749981150.983332,1915
1749981150.9834094,1633
1749981150.9834871,1422
1749981150.9835649,1323
1749981150.9836426,1439
1749981150.9837208,1766
1749981150.9837983,2138
1749981150.9838755,2359
1749981150.9839537,2390
1749981150.9840326,2239
1749981150.9841106,1972
1749981150.984188,1680
1749981150.9842658,1451
1749981150.984344,1321
1749981150.9844222,1392
1749981150.9845,1689
1749981150.9845781,2071
1749981150.9846568,2324
1749981150.9847343,2388
1749981150.9848123,2267
1749981150.9848897,2020
1749981150.9849815,1727
1749981150.9850643,1484
1749981150.9851418,1327
1749981150.9852195,1356
1749981150.9852972,1621
1749981150.9853745,2010
1749981150.9854522,2299
1749981150.98553,2396
1749981150.9856076,2303
1749981150.9856703,2070
1749981150.9857373,1776
1749981150.9858148,1523
1749981150.985892,1352
1749981150.98597,1345
1749981150.9860477,1573
1749981150.9861257,1953
1749981150.9862006,2267
1749981150.9862769,2398
1749981150.9863522,2341
1749981150.9864273,2132
1749981150.9865022,1840
1749981150.9865775,1568
1749981150.986653,1372
1749981150.9867277,1321
1749981150.9868026,1506
1749981150.986878,1874
1749981150.9869533,2216
1749981150.9870281,2380
1749981150.9871037,2355
1749981150.9871788,2164
1749981150.9872494,1877
1749981150.9873197,1592
1749981150.9873903,1377
1749981150.9874606,1290
1749981150.9875312,1432
1749981150.9876027,1782
1749981150.9876735,2150
1749981150.987745,2353
1749981150.987816,2364
1749981150.9878874,2200
1749981150.9879577,1931
1749981150.988028,1646
1749981150.9880972,1423
1749981150.988168,1301
1749981150.9882388,1391
1749981150.9909968,1706
1749981151.0028586,2091
1749981151.0029693,2335
1749981151.004783,2384
1749981151.004895,2245
1749981151.005011,1983
1749981151.0051322,1688
1749981151.0052364,1451
1749981151.00534,1308
1749981151.0054443,1361
1749981151.0055473,1647
1749981151.006054,2037
1749981151.0068202,2308
1749981151.0275443,2386
1749981151.0633786,2274
1749981151.1066308,2032
1749981151.139458,1740
1749981151.139541,1494
1749981151.150255,1329
1749981151.1508029,1338
1749981151.1515098,1585
1749981151.1533923,1974
1749981151.189196,2280
1749981151.1892986,2396
1749981151.1893902,2319
1749981151.1988473,2096
1749981151.1989877,1802
1749981151.1991174,1538
1749981151.1993508,1351
1749981151.1994812,1319
1749981151.2014067,1526
1749981151.2016122,1909
1749981151.2020414,2249
1749981151.2392838,2403
1749981151.281955,2359
1749981151.3265395,2151
1749981151.3508399,1859
1749981151.3573706,1585
1749981151.3574839,1386
1749981151.3578014,1321
1749981151.3587236,1487
1749981151.359721,1848
1749981151.3598664,2209
1749981151.3599732,2395
1749981151.3600788,2384
1749981151.3603854,2198
1749981151.3604922,1915
1749981151.3606095,1631
1749981151.3607159,1416
1749981151.3608208,1312
1749981151.3609266,1429
1749981151.3610318,1765
1749981151.3611362,2150
1749981151.3612282,2379
1749981151.3613033,2406
1749981151.361379,2245
1749981151.3614545,1971
1749981151.3615296,1680
1749981151.3625207,1454
1749981151.3625991,1324
1749981151.3626745,1396
1749981151.36275,1697
1749981151.3628254,2087
1749981151.362901,2346
1749981151.3629766,2406
1749981151.3630507,2272
1749981151.3631294,2009
1749981151.3652925,1709
1749981151.3653715,1467
1749981151.365449,1314
1749981151.3655272,1348
1749981151.3656049,1618
1749981151.3658001,2014
1749981151.3658779,2309
1749981151.3659544,2410
1749981151.3660312,2314
1749981151.3661075,2074
1749981151.3661842,1771
1749981151.3662608,1510
1749981151.3663373,1333
1749981151.3664136,1326
1749981151.3664994,1561
1749981151.366576,1952
1749981151.3666523,2275
1749981151.3667285,2406
1749981151.366805,2340
1749981151.3668818,2118
1749981151.3669605,1820
1749981151.3670366,1549
1749981151.3671129,1358
1749981151.4052167,1313
1749981151.4187095,1506
1749981151.4188945,1880
1749981151.419061,2226
1749981151.4201996,2393
1749981151.4624426,2365
1749981151.5035164,2167
1749981151.5045936,1873
1749981151.5046763,1586
1749981151.5048754,1374
1749981151.5056007,1292
1749981151.505684,1441
1749981151.5057616,1794
1749981151.506927,2166
1749981151.5077834,2373
1749981151.5079217,2383
1749981151.5080018,2212
1749981151.5080764,1931
1749981151.5081525,1639
1749981151.5082285,1415
1749981151.508554,1302
1749981151.5086303,1404
1749981151.5087056,1728
1749981151.518594,2115
1749981151.5187314,2358
1749981151.5188417,2405
1749981151.51895,2260
1749981151.519058,1990
1749981151.5191813,1690
1749981151.5194225,1452
1749981151.519551,1312
1749981151.5196605,1370
1749981151.5197694,1659
1749981151.519995,2049
1749981151.5201137,2319
1749981151.5202322,2395
1749981151.52035,2277
1749981151.5204678,2027
1749981151.5205858,1729
1749981151.520704,1481
1749981151.5208228,1318
1749981151.5209801,1331
1749981151.5210981,1584
1749981151.5212162,1978
1749981151.521334,2286
1749981151.5214517,2401
1749981151.5215697,2317
1749981151.5218196,2086
1749981151.521939,1792
1749981151.5220578,1538
1749981151.5221925,1359
1749981151.522312,1330
1749981151.5224304,1539
1749981151.5225513,1921
1749981151.5226872,2259
1749981151.5228066,2409
1749981151.5229251,2356
1749981151.5235176,2138
1749981151.5236428,1842
1749981151.5237708,1572
1749981151.5258305,1375
1749981151.5259583,1309
1749981151.5273192,1475
1749981151.5274377,1843
1749981151.5801663,2210
1749981151.6295645,2401
1749981151.629947,2388
1749981151.6302857,2197
1749981151.6306176,1914
1749981151.6309502,1634
1749981151.631283,1420
1749981151.631637,1313
1749981151.6319702,1431
1749981151.632301,1772
1749981151.6326313,2158
1749981151.6329618,2380
1749981151.6332939,2397
1749981151.6336248,2230
1749981151.6339653,1962
1749981151.640671,1681
1749981151.6411004,1459
1749981151.6414826,1327
1749981151.6419113,1403
1749981151.6422894,1715
1749981151.6464386,2114
1749981151.6552382,2372
1749981151.6553729,2423
1749981151.6555283,2282
1749981151.6556795,2027
1749981151.6557667,1742
1749981151.6558485,1504
1749981151.65593,1341
1749981151.6560268,1369
1749981151.6561098,1654
1749981151.6561906,2078
1749981151.6562717,2388
1749981151.6563523,2477
1749981151.6564455,2356
1749981151.6565282,2106
1749981151.656609,1818
1749981151.6566896,1576
1749981151.6567712,1395
1749981151.656852,1370
1749981151.6569462,1597
1749981151.6570268,2002
1749981151.6571083,2342
1749981151.6571896,2471
1749981151.6572707,2385
1749981151.657366,2153
1749981151.657449,1872
1749981151.65753,1626
1749981151.6576107,1436
1749981151.6576793,1371
1749981151.6577415,1552
1749981151.6578364,1941
1749981151.657918,2310
1749981151.6579988,2478
1749981151.6580794,2425
1749981151.6581602,2208
1749981151.658265,1925
1749981151.6583478,1665
1749981151.6584287,1460
1749981151.658509,1358
1749981151.6585906,1492
1749981151.6586869,1859
1749981151.6587682,2254
1749981151.658849,2461
1749981151.6589293,2441
1749981151.6590512,2240
1749981151.6591294,1962
1749981151.6592007,1699
1749981151.6592624,1491
1749981151.6593404,1364
1749981151.6594338,1445
1749981151.6595123,1768
1749981151.65959,2171
1749981151.6596677,2419
1749981151.659745,2446
1749981151.6598227,2272
1749981151.6599257,1996
1749981151.6600037,1719
1749981151.6600807,1509
1749981151.6601584,1374
1749981151.6602364,1418
1749981151.6603353,1691
1749981151.660414,2077
1749981151.6604917,2350
1749981151.6605644,2424
1749981151.6606357,2299
1749981151.6607065,2044
1749981151.667176,1749
1749981151.6672428,1506
1749981151.6673224,1344
1749981151.6674001,1364
1749981151.6674726,1637
1749981151.6675448,2055
1749981151.6676176,2367
1749981151.6676896,2458
1749981151.6677613,2343
1749981151.6678336,2100
1749981151.6679053,1818
1749981151.6679773,1575
1749981151.6680489,1384
1749981151.6681209,1336
1749981151.668193,1541
1749981151.6682744,1941
1749981151.6683466,2295
1749981151.6684186,2438
1749981151.6684902,2363
1749981151.6685624,2135
1749981151.6686344,1851
1749981151.6687064,1599
1749981151.6687777,1403
1749981151.66885,1318
1749981151.6689217,1464
1749981151.6689932,1823
1749981151.6690648,2190
1749981151.669158,2378
1749981151.6742609,2355
1749981151.6824927,2154
1749981151.6832447,1867
1749981151.6840093,1596
1749981151.6864476,1394
1749981151.6865225,1301
1749981151.6865957,1427
1749981151.6866684,1769
1749981151.6867414,2148
1749981151.6868136,2362
1749981151.6868863,2371
1749981151.6869671,2196
1749981151.68704,1920
1749981151.687113,1634
1749981151.6871808,1411
1749981151.6872413,1288
1749981151.6873136,1383
1749981151.6873863,1720
1749981151.6874592,2134
1749981151.6875317,2388
1749981151.6876047,2421
1749981151.6876774,2263
1749981151.6877506,2005
1749981151.6878269,1728
1749981151.6878998,1498
1749981151.687972,1331
1749981151.6880448,1350
1749981151.688117,1628
1749981151.6881895,2047
1749981151.6882706,2354
1749981151.6883428,2440
1749981151.688415,2315
1749981151.6884866,2066
1749981151.6885583,1783
1749981151.6886308,1543
1749981151.6887028,1360
1749981151.6887748,1336
1749981151.6888468,1572
1749981151.6889243,1986
1749981151.6889973,2326
1749981151.6890695,2448
1749981151.6891418,2350
1749981151.6892138,2112
1749981151.6892862,1833
1749981151.6893585,1590
1749981151.689431,1400
1749981151.6895034,1335
1749981151.6895752,1522
1749981151.6896422,1920
1749981151.6897018,2293
1749981151.6897736,2456
1749981151.6898456,2394
1749981151.6899173,2170
1749981151.6899896,1888
1749981151.6900616,1633
1749981151.690134,1433
1749981151.6902065,1336
1749981151.6902816,1475
1749981151.690354,1845
1749981151.690916,2237
1749981151.694908,2440
1749981151.6950324,2417
1749981151.695137,2215
1749981151.6953282,1937
1749981151.695434,1675
1749981151.6959271,1471
1749981151.6966999,1351
1749981151.6969779,1439
1749981151.6973839,1760
1749981151.6979766,2150
1749981151.698396,2387
1749981151.6986115,2412
1749981151.6991475,2247
1749981151.7165604,1978
1749981151.7196436,1694
1749981151.7284162,1468
1749981151.728513,1327
1749981151.7286036,1391
1749981151.7287114,1701
1749981151.7288015,2111
1749981151.7288914,2380
1749981151.7289803,2432
1749981151.729099,2287
1749981151.7291892,2031
1749981151.7292776,1750
1749981151.7293673,1519
1749981151.7294564,1356
1749981151.7295675,1364
1749981151.7296488,1619
1749981151.7503078,2019
1749981151.7524898,2325
1749981151.7525985,2425
1749981151.7526712,2325
1749981151.752742,2091
1749981151.752816,1807
1749981151.7528875,1558
1749981151.75296,1372
1749981151.7530317,1345
1749981151.753105,1574
1749981151.7531762,1985
1749981151.7532473,2331
1749981151.7533183,2463
1749981151.7533891,2382
1749981151.7534597,2157
1749981151.7593827,1877
1749981151.7605958,1624
1749981151.7607384,1424
1749981151.7610807,1348
1749981151.7614136,1518
1749981151.762444,1902
1749981151.769418,2276
1749981151.7694957,2452
1749981151.7695763,2412
1749981151.7696404,2206
1749981151.769705,1929
1749981151.769776,1667
1749981151.7698474,1458
1749981151.7699184,1344
1749981151.76999,1453
1749981151.770247,1789
1749981151.7703176,2168
1749981151.7703884,2381
1749981151.7704597,2386
1749981151.7705302,2209
1749981151.7706017,1938
1749981151.7706728,1660
1749981151.7707446,1438
1749981151.7708158,1310
1749981151.7708864,1403
1749981151.7709572,1744
1749981151.7710285,2162
1749981151.7710996,2414
1749981151.7711675,2439
1749981151.7712276,2272
1749981151.7712934,2013
1749981151.77136,1745
1749981151.7714274,1525
1749981151.7715058,1365
1749981151.771572,1387
1749981151.7716448,1664
1749981151.7717109,2078
1749981151.7720118,2375
1749981151.7720795,2449
1749981151.7721455,2317
1749981151.7722108,2067
1749981151.7722769,1792
1749981151.7723427,1563
1749981151.7724092,1389
1749981151.7724743,1366
1749981151.77254,1588
1749981151.7726078,1980
1749981151.7726748,2299
1749981151.772741,2412
1749981151.7728062,2319
1749981151.7728724,2086
1749981151.7729397,1804
1749981151.773005,1558
1749981151.7730708,1373
1749981151.7731361,1329
1749981151.7732036,1541
1749981151.7732751,1951
1749981151.7733462,2316
1749981151.7734175,2463
1749981151.7734919,2389
1749981151.7735631,2166
1749981151.7736285,1893
1749981151.7736905,1648
1749981151.7737617,1451
1749981151.773833,1356
1749981151.773904,1497
1749981151.7739744,1866
1749981151.7740462,2252
1749981151.7741168,2449
1749981151.7741878,2426
1749981151.7742589,2230
1749981151.7743304,1958
1749981151.774401,1695
1749981151.774472,1486
1749981151.774938,1367
1749981151.7762396,1466
1749981151.7763207,1801
1749981151.7766945,2194
1749981151.7771223,2424
1749981151.7771971,2440
1749981151.7772698,2270
1749981151.7773435,2003
1749981151.777683,1725
1749981151.777813,1505
1749981151.7779748,1367
1749981151.778206,1428
1749981151.7784534,1729
1749981151.838481,2127
1749981151.854233,2389
1749981151.8543193,2440
1749981151.8544114,2296
1749981151.8544886,2040
1749981151.8546114,1756
1749981151.8546898,1524
1749981151.8547678,1366
1749981151.8548455,1389
1749981151.8549306,1666
1749981151.8550093,2085
1749981151.855087,2393
1749981151.8551648,2480
1749981151.8552423,2359
1749981151.85532,2114
1749981151.8553996,1834
1749981151.8554776,1597
1749981151.8555546,1413
1749981151.8556316,1374
1749981151.8557086,1588
1749981151.8557858,1991
1749981151.8558629,2338
1749981151.8559394,2475
1749981151.8560162,2395
1749981151.8561025,2164
1749981151.8561792,1881
1749981151.856255,1635
1749981151.8563318,1447
1749981151.8564084,1376
1749981151.8564856,1539
1749981151.8565621,1907
1749981151.856639,2266
1749981151.8567154,2439
1749981151.8567917,2402
1749981151.8568683,2195
1749981151.8569455,1911
1749981151.8570218,1643
1749981151.8570983,1437
1749981151.8571746,1341
1749981151.857251,1477
1749981151.8573267,1840
1749981151.857404,2233
1749981151.85748,2443
1749981151.8575559,2433
1749981151.8576322,2242
1749981151.8577085,1969
1749981151.8577843,1699
1749981151.8578613,1484
1749981151.8579378,1348
1749981151.8580165,1424
1749981151.8580928,1747
1749981151.8581693,2156
1749981151.8582458,2409
1749981151.8723629,2437
1749981151.8735795,2270
1749981151.873655,2005
1749981151.8737373,1732
1749981151.8738043,1508
1749981151.8738713,1348
1749981151.8739393,1377
1749981151.8740103,1666
1749981151.8740783,2087
1749981151.87415,2383
1749981151.874221,2453
1749981151.8742917,2313
1749981151.874439,2057
1749981151.8745108,1778
1749981151.874582,1548
1749981151.8746524,1375
1749981151.8747237,1362
1749981151.8747978,1600
1749981151.874869,2005
1749981151.8749516,2330
1749981151.8750174,2442
1749981151.8750846,2343
1749981151.8751504,2104
1749981151.8752167,1816
1749981151.8752825,1567
1749981151.8753488,1380
1749981151.8754163,1335
1749981151.875483,1536
1749981151.8755484,1927
1749981151.8756144,2277
1749981151.8756804,2429
1749981151.8757524,2371
1749981151.8758233,2154
1749981151.8758938,1867
1749981151.8759649,1606
1749981151.8760357,1411
1749981151.8761065,1338
1749981151.8761775,1495
1749981151.8762484,1855
1749981151.8763187,2215
1749981151.87639,2399
1749981151.876461,2382
1749981151.8765316,2196
1749981151.876603,1920
1749981151.876674,1643
1749981151.876745,1427
1749981151.8768153,1323
1749981151.8768864,1454
1749981151.876957,1818
1749981151.8770275,2222
1749981151.877098,2443
1749981151.8771687,2444
1749981151.8772392,2265
1749981151.8773103,2001
1749981151.8773816,1733
1749981151.8774524,1512
1749981151.8775227,1364
1749981151.8775935,1417
1749981151.8776646,1725
1749981151.877735,2140
1749981151.8778062,2414
1749981151.8778765,2463
1749981151.8779473,2310
1749981151.878018,2049
1749981151.878088,1771
1749981151.8781586,1540
1749981151.8782296,1373
1749981151.878309,1384
1749981151.8783789,1653
1749981151.8829553,2071
1749981151.891437,2379
1749981151.964388,2462
1749981151.9686453,2333
1749981151.968809,2082
1749981151.9688876,1800
1749981151.9690163,1562
1749981151.9690945,1380
1749981151.969172,1348
1749981151.9692492,1573
1749981151.969326,1983
1749981151.970553,2329
1749981151.9706655,2456
1749981151.970745,2363
1749981151.970825,2126
1749981151.9709048,1845
1749981151.9709852,1599
1749981151.9710648,1406
1749981151.9711444,1335
1749981151.971211,1511
1749981151.9712708,1900
1749981151.9713495,2271
1749981151.971428,2437
1749981151.9715056,2381
1749981151.9715967,2165
1749981151.9716787,1889
1749981151.9717562,1632
1749981151.9718375,1424
1749981151.971914,1313
1749981151.9719908,1440
1749981151.972075,1804
1749981151.9721408,2202
1749981151.9722059,2411
1749981151.9722726,2395
1749981151.9723382,2201
1749981151.9724078,1930
1749981151.9724865,1668
1749981151.9725654,1456
1749981151.9726443,1325
1749981151.9727232,1411
1749981151.9728012,1744
1749981151.9728796,2152
1749981151.9729574,2393
1749981151.9730358,2407
1749981151.9731135,2229
1749981151.973193,1963
1749981151.9732723,1694
1749981151.9733489,1476
1749981151.9734256,1321
1749981151.9735036,1356
1749981151.9735804,1646
1749981151.9736443,2063
1749981151.973708,2354
1749981151.973785,2421
1749981151.973863,2281
1749981151.9739401,2026
1749981151.974025,1747
1749981151.9740896,1515
1749981151.9741552,1341
1749981151.9742205,1331
1749981151.974286,1579
1749981151.9743648,1991
1749981151.9744444,2313
1749981151.9745224,2415
1749981151.9746008,2306
1749981151.9746804,2066
1749981151.9747586,1788
1749981151.9748352,1549
1749981151.9749112,1365
1749981151.9823995,1319
1749981151.9824848,1525
1749981151.9825652,1924
1749981151.9826477,2278
1749981151.9827282,2422
1749981151.9828095,2351
1749981151.9828908,2127
1749981151.9829705,1845
1749981151.9830546,1592
1749981151.9831405,1396
1749981151.9832215,1316
1749981151.9832842,1469
1749981151.9833536,1831
1749981151.9834366,2192
1749981151.9835165,2369
1749981151.983596,2340
1749981151.983676,2146
1749981151.9857454,1871
1749981151.9858391,1604
1749981151.985917,1391
1749981151.9859946,1281
1749981151.9860723,1402
1749981151.9868622,1759
1749981151.9869468,2159
1749981151.9870286,2380
1749981151.9871087,2378
1749981151.987181,2194
1749981151.987241,1925
1749981151.9873207,1656
1749981151.9896579,1440
1749981151.9897869,1299
1749981151.9898999,1363
1749981151.9918284,1676
1749981151.9919574,2086
1749981151.9920626,2349
1749981151.9921672,2388
1749981151.9922712,2229
1749981151.9923742,1967
1749981151.9924781,1689
1749981151.9925811,1459
1749981151.9926846,1294
1749981151.992788,1311
1749981151.992891,1589
1749981151.9929938,2009
1749981151.9930966,2316
1749981151.9931998,2400
1749981151.9933026,2275
1749981151.993406,2029
1749981151.9935088,1752
1749981151.993612,1517
1749981151.9938602,1335
1749981151.9939654,1305
1749981151.9940686,1534
1749981151.9941745,1945
1749981151.9942782,2286
1749981151.994381,2408
1749981151.9944842,2312
1749981151.9945877,2079
1749981151.9946904,1803
1749981151.9947937,1565
1749981151.994897,1377
1749981152.0439332,1311
1749981152.0496624,1493
1749981152.0512044,1886
1749981152.0515168,2256
1749981152.0516152,2417
1749981152.0516765,2353
1749981152.051738,2130
1749981152.0518112,1851
1749981152.0518777,1600
1749981152.0519462,1400
1749981152.0520117,1302
1749981152.052078,1438
1749981152.0521443,1807
1749981152.05221,2202
1749981152.052276,2407
1749981152.0523417,2386
1749981152.1009574,2188
1749981152.1061409,1917
1749981152.1156762,1657
1749981152.1550777,1448
1749981152.1553028,1319
1749981152.1554208,1406
1749981152.155536,1741
1749981152.1556504,2151
1749981152.1557653,2394
1749981152.1558802,2409
1749981152.155995,2234
1749981152.15611,1971
1749981152.1562257,1707
1749981152.1563406,1492
1749981152.156486,1338
1749981152.1566007,1376
1749981152.1567166,1671
1749981152.156831,2090
1749981152.1569455,2375
1749981152.1570601,2432
1749981152.1571743,2283
1749981152.157289,2028
1749981152.157404,1760
1749981152.1575193,1540
1749981152.1577575,1371
1749981152.1578734,1363
1749981152.1579888,1612
1749981152.1581059,2026
1749981152.2040672,2346
1749981152.2150679,2443
1749981152.2152736,2323
1749981152.2153785,2075
1749981152.2154818,1799
1749981152.2155845,1569
1749981152.2179306,1390
1749981152.2185774,1345
1749981152.2186882,1549
1749981152.2188625,1949
1749981152.2193892,2302
1749981152.2195272,2442
1749981152.2215264,2361
1749981152.221656,2130
1749981152.2217722,1848
1749981152.221877,1599
1749981152.2219803,1401
1749981152.2220843,1317
1749981152.2221885,1476
1749981152.2222924,1858
1749981152.2223966,2239
1749981152.2225003,2419
1749981152.2226038,2373
1749981152.2227077,2160
1749981152.222788,1884
1749981152.2228596,1630
1749981152.2229302,1425
1749981152.2230008,1308
1749981152.2230709,1418
1749981152.2231417,1771
1749981152.2232125,2177
1749981152.2232833,2404
1749981152.2233536,2402
1749981152.223424,2212
1749981152.223494,1940
1749981152.2235653,1676
1749981152.2236357,1467
1749981152.2237065,1331
1749981152.2237804,1398
1749981152.223851,1714
1749981152.223921,2127
1749981152.223992,2391
1749981152.2240627,2429
1749981152.2241337,2265
1749981152.224204,1998
1749981152.2242749,1721
1749981152.2243454,1497
1749981152.2244155,1338
1749981152.224486,1359
1749981152.2245564,1636
1749981152.224627,2054
1749981152.2246974,2359
1749981152.2247677,2441
1749981152.2248383,2309
1749981152.2249086,2056
1749981152.2440457,1777
1749981152.247979,1546
1749981152.2534761,1371
1749981152.3081844,1346
1749981152.3605893,1574
1749981152.5150375,1983
1749981152.5497575,2324
1749981152.5895052,2447
1749981152.589626,2349
1749981152.589733,2106
1749981152.5917149,1822
1749981152.5947087,1583
1749981152.5957568,1400
1749981152.6122003,1342
1749981152.644112,1527
1749981152.6855855,1917
1749981152.6859546,2282
1749981152.686081,2442
1749981152.686186,2378
1749981152.6862905,2151
1749981152.6863942,1863
1749981152.6864977,1604
1749981152.6891778,1402
1749981152.690984,1307
1749981152.6982763,1450
1749981152.7052174,1821
1749981152.7179415,2212
1749981152.7184443,2411
1749981152.7187881,2385
1749981152.7191164,2180
1749981152.7194407,1901
1749981152.7197704,1636
1749981152.7200987,1428
1749981152.7204237,1306
1749981152.7207627,1401
1749981152.7210906,1738
1749981152.7214181,2143
1749981152.7217932,2383
1749981152.7221227,2399
1749981152.7224562,2224
1749981152.722793,1957
1749981152.723127,1684
1749981152.7462811,1464
1749981152.763805,1314
1749981152.7726052,1361
1749981152.7727425,1665
1749981152.7744913,2088
1749981152.7746003,2376
1749981152.774704,2434
1749981152.7748132,2283
1749981152.7864406,2019
1749981152.8298342,1740
1749981152.831109,1514
1749981152.8516178,1349
1749981152.8517082,1353
1749981152.8517888,1610
1749981152.8518672,2024
1749981152.852434,2342
1749981152.8747518,2439
1749981152.8750186,2322
1749981152.9061086,2075
1749981152.9067166,1794
1749981152.9068806,1558
1749981152.9070337,1378
1749981152.907462,1340
1749981152.9079812,1553
1749981152.9142237,1953
1749981152.9144464,2298
1749981152.9162688,2435
1749981152.9165392,2357
1749981152.916879,2129
1749981152.9172473,1847
1749981152.9220312,1594
1749981152.9221396,1396
1749981152.9222426,1323
1749981152.9223466,1497
1749981152.9294775,1884
1749981152.929729,2260
1749981152.9298341,2437
1749981152.9299388,2394
1749981152.9300995,2187
1749981152.9302034,1911
1749981152.930307,1650
1749981152.930409,1441
1749981152.9305115,1330
1749981152.930614,1452
1749981152.9307168,1810
1749981152.930819,2208
1749981152.9309216,2425
1749981152.9313548,2419
1749981152.931458,2230
1749981152.9315615,1959
1749981152.931674,1691
1749981152.9317763,1475
1749981152.9318793,1338
1749981152.942413,1412
1749981152.9425106,1737
1749981152.9426517,2150
1749981152.9431152,2407
1749981152.9431946,2437
1749981152.9432542,2272
1749981152.943542,2011
1749981152.9436536,1739
1749981152.9437308,1516
1749981152.943983,1354
1749981152.9443605,1377
1749981152.9445403,1660
1749981152.9447095,2079
1749981152.9448776,2376
1749981152.9454422,2448
1749981152.9514952,2311
1749981152.951741,2062
1749981152.951944,1789
1749981152.952145,1560
1749981152.952346,1384
1749981152.9525466,1364
1749981152.953154,1603
1749981152.9536018,2017
1749981152.9538047,2350
1749981152.954005,2462
1749981152.9542055,2356
1749981152.9544215,2115
1749981152.9546225,1833
1749981152.954823,1590
1749981153.0290706,1401
1749981153.0356646,1347
1749981153.0358407,1547
1749981153.0360208,1948
1749981153.036216,2310
1749981153.0363462,2462
1749981153.0364769,2396
1749981153.0366251,2177
1749981153.0368614,1898
1749981153.036992,1642
1749981153.0371234,1438
1749981153.0372376,1348
1749981153.0380697,1504
1749981153.0383537,1885
1749981153.0384674,2269
1749981153.0386834,2455
1749981153.0416756,2420
1749981153.0417984,2221
1749981153.0419388,1953
1749981153.04205,1692
1749981153.0482938,1478
1749981153.062364,1351
1749981153.062598,1454
1749981153.06284,1809
1749981153.063002,2224
1749981153.0631495,2462
1749981153.0632184,2470
1749981153.0815008,2288
1749981153.1123385,2019
1749981153.1159465,1747
1749981153.116068,1526
1749981153.1164303,1379
1749981153.1166897,1435
1749981153.1167812,1746
1749981153.1168709,2158
1749981153.1169865,2423
1749981153.1170764,2464
1749981153.1171656,2311
1749981153.1172545,2059
1749981153.1173432,1787
1749981153.117456,1557
1749981153.1175454,1384
1749981153.1206276,1388
1749981153.1207116,1657
1749981153.1207871,2076
1749981153.120864,2386
1749981153.1209702,2470
1749981153.1210458,2345
1749981153.1211221,2102
1749981153.1211996,1831
1749981153.121275,1600
1749981153.1265407,1418
1749981153.1266189,1382
1749981153.1266909,1602
1749981153.1267633,2009
1749981153.1268358,2354
1749981153.1269078,2481
1749981153.1269798,2389
1749981153.1270518,2154
1749981153.1271234,1872
1749981153.1271951,1626
1749981153.1272666,1432
1749981153.127338,1359
1749981153.1274104,1533
1749981153.1274822,1921
1749981153.1275535,2290
1749981153.127626,2454
1749981153.1276977,2399
1749981153.12777,2185
1749981153.127841,1913
1749981153.127913,1664
1749981153.1279886,1463
1749981153.1280618,1358
1749981153.1281333,1484
1749981153.128205,1844
1749981153.1283195,2237
1749981153.1967309,2443
1749981153.2089908,2423
1749981153.2157865,2224
1749981153.2158964,1950
1749981153.2160006,1686
1749981153.2161038,1473
1749981153.216207,1340
1749981153.216309,1419
1749981153.2191486,1748
1749981153.222545,2158
1749981153.2226715,2406
1749981153.2227755,2427
1749981153.2228794,2255
1749981153.2233033,1991
1749981153.2234087,1718
1749981153.2283254,1493
1749981153.2284708,1336
1749981153.2285914,1372
1749981153.2286952,1666
1749981153.2288046,2084
1749981153.2325947,2369
1749981153.232732,2427
1749981153.2328389,2285
1749981153.2329435,2036
1749981153.2330472,1762
1749981153.2331529,1530
1749981153.2332563,1353
1749981153.2334008,1343
1749981153.2344263,1591
1749981153.2911458,2001
1749981153.2914877,2319
1749981153.2918377,2419
1749981153.2926748,2313
1749981153.2935207,2079
1749981153.2937386,1804
1749981153.3172266,1566
1749981153.3192012,1383
1749981153.3193777,1339
1749981153.319452,1541
1749981153.3195255,1930
1749981153.3195987,2271
1749981153.3196714,2408
1749981153.319744,2336
1749981153.319817,2115
1749981153.319891,1832
1749981153.3199978,1572
1749981153.3202617,1370
1749981153.3211918,1290
1749981153.3213336,1456
1749981153.3546932,1843
1749981153.3640902,2235
1749981153.3641984,2431
1749981153.3642902,2405
1749981153.3643806,2203
1749981153.364472,1921
1749981153.3645682,1650
1749981153.3646584,1437
1749981153.3647504,1323
1749981153.3649344,1435
1749981153.3650255,1786
1749981153.365116,2190
1749981153.3652055,2426
1749981153.3652956,2443
1749981153.3653853,2271
1749981153.3654945,2003
1749981153.3664455,1730
1749981153.3666093,1510
1749981153.3667002,1365
1749981153.3667903,1413
1749981153.3668804,1697
1749981153.3669708,2079
1749981153.3670604,2333
1749981153.3672101,2385
1749981153.367302,2248
1749981153.367393,1997
1749981153.3674839,1714
1749981153.3675745,1475
1749981153.3676524,1307
1749981153.3677263,1329
1749981153.3684134,1613
1749981153.369202,2039
1749981153.3692815,2349
1749981153.3693576,2434
1749981153.3694334,2311
1749981153.3695264,2066
1749981153.369698,1785
1749981153.3697746,1541
1749981153.3698504,1350
1749981153.369918,1315
1749981153.369993,1544
1749981153.3700676,1962
1749981153.370143,2313
1749981153.3702545,2445
1749981153.37033,2358
1749981153.3704057,2127
1749981153.3704813,1849
1749981153.3705566,1605
1749981153.3706317,1410
1749981153.370707,1329
1749981153.3707817,1481
1749981153.3708577,1838
1749981153.3709345,2188
1749981153.3710103,2360
1749981153.3710852,2331
1749981153.3711603,2136
1749981153.371235,1860
1749981153.3713226,1592
1749981153.3713977,1380
1749981153.3714724,1284
1749981153.371547,1430
1749981153.371631,1805
1749981153.3717058,2201
1749981153.3717804,2406
1749981153.3718545,2389
1749981153.3719292,2197
1749981153.3720036,1928
1749981153.3720877,1667
1749981153.3721597,1454
1749981153.3722315,1321
1749981153.3723032,1403
1749981153.3723752,1734
1749981153.372447,2143
1749981153.3725193,2393
1749981153.3725908,2422
1749981153.3726623,2262
1749981153.3727343,2007
1749981153.3728058,1737
1749981153.3728776,1507
1749981153.372949,1344
1749981153.3794959,1383
1749981153.37968,1691
1749981153.3797622,2122
1749981153.3798418,2408
1749981153.3799243,2456
1749981153.3800027,2303
1749981153.3921928,2053
1749981153.392282,1792
1749981153.3923616,1573
1749981153.3924432,1396
1749981153.3925228,1372
1749981153.3926024,1607
1749981153.3926811,2015
1749981153.3927598,2341
1749981153.3928387,2448
1749981153.3929167,2339
1749981153.3929956,2097
1749981153.3930743,1818
1749981153.393152,1579
1749981153.39323,1392
1749981153.3933086,1342
1749981153.393387,1543
1749981153.3934648,1939
1749981153.3935444,2284
1749981153.3936195,2411
1749981153.3936846,2318
1749981153.3937633,2080
1749981153.3938417,1804
1749981153.393919,1571
1749981153.3939965,1395
1749981153.394075,1329
1749981153.3941548,1497
1749981153.394233,1880
1749981153.3943117,2255
1749981153.3943894,2419
1749981153.3944676,2351
1749981153.394545,2121
1749981153.394623,1840
1749981153.394701,1594
1749981153.39478,1407
1749981153.3948574,1304
1749981153.3949513,1419
1749981153.3950303,1770
1749981153.395108,2172
1749981153.3951774,2392
1749981153.3952398,2378
1749981153.3953178,2171
1749981153.3953953,1887
1749981153.395473,1625
1749981153.3955505,1435
1749981153.3956294,1326
1749981153.3957071,1409
1749981153.3957846,1724
1749981153.395863,2127
1749981153.3959405,2384
1749981153.396018,2420
1749981153.3960953,2252
1749981153.396173,1973
1749981153.3962512,1682
1749981153.396329,1457
1749981153.3964064,1319
1749981153.3964849,1373
1749981153.3965623,1676
1749981153.3966408,2101
1749981153.3967187,2395
1749981153.3967972,2455
1749981153.3968747,2305
1749981153.3969526,2042
1749981153.3970299,1762
1749981153.3971076,1537
1749981153.3971853,1370
1749981153.3972638,1353
1749981153.4245832,1587
1749981153.4394357,2000
1749981153.43955,2344
1749981153.439656,2468
1749981153.4398074,2364
1749981153.4399118,2115
1749981153.4400406,1825
1749981153.4405138,1579
1749981153.4411597,1388
1749981153.4413164,1324
1749981153.441395,1508
1749981153.4415066,1904
1749981153.441699,2279
1749981153.4425008,2444
1749981153.442585,2376
1749981153.442664,2141
1749981153.4427419,1849
1749981153.4428275,1596
1749981153.442905,1407
1749981153.4429824,1324
1749981153.4430602,1470
1749981153.4432373,1837
1749981153.4433177,2225
1749981153.4433951,2430
1749981153.4434724,2416
1749981153.4435499,2222
1749981153.443628,1940
1749981153.4437058,1660
1749981153.4437828,1436
1749981153.4438605,1306
1749981153.458713,1400
1749981153.458796,1735
1749981153.458869,2135
1749981153.4589422,2372
1749981153.4590144,2393
1749981153.4590867,2226
1749981153.4591627,1959
1749981153.459226,1679
1749981153.459298,1453
1749981153.4593694,1310
1749981153.459441,1374
1749981153.4595122,1687
1749981153.459584,2102
1749981153.459656,2373
1749981153.459727,2420
1749981153.459799,2265
1749981153.4598713,1998
1749981153.4599428,1707
1749981153.4600143,1468
1749981153.460086,1298
1749981153.460157,1311
1749981153.4602287,1588
1749981153.4602997,2025
1749981153.4603717,2368
1749981153.4604428,2490
1749981153.460521,2392
1749981153.4605923,2148
1749981153.4606638,1851
1749981153.4607353,1591
1749981153.460812,1392
1749981153.4608872,1350
1749981153.4609616,1567
1749981153.4610355,1978
1749981153.4611094,2339
1749981153.461184,2495
1749981153.4612582,2429
1749981153.461333,2200
1749981153.4966338,1903
1749981153.504627,1634
1749981153.5047212,1428
1749981153.5048766,1349
1749981153.5051403,1507
1749981153.505221,1868
1749981153.5053012,2224
1749981153.5053825,2406
1749981153.5054631,2389
1749981153.5297089,2203
1749981153.5384295,1923
1749981153.5386827,1641
1749981153.541475,1418
1749981153.543068,1320
1749981153.5453408,1468
1749981153.5458617,1846
1749981153.5461984,2247
1749981153.5464797,2463
1749981153.5467613,2460
1749981153.546994,2277
1749981153.5471275,2006
1749981153.5473423,1730
1749981153.550436,1506
1749981153.5505471,1366
1749981153.5506504,1437
1749981153.5507529,1752
1749981153.550855,2154
1749981153.5509737,2413
1749981153.551077,2462
1749981153.551282,2315
1749981153.5513842,2053
1749981153.5514865,1761
1749981153.551606,1515
1749981153.5517116,1349
1749981153.5518143,1391
1749981153.5519161,1698
1749981153.5520175,2135
1749981153.5521295,2450
1749981153.552232,2535
1749981153.5523343,2398
1749981153.5524368,2142
1749981153.5525384,1862
1749981153.5526419,1623
1749981153.552744,1423
1749981153.552859,1375
1749981153.5529733,1587
1749981153.5530756,1998
1749981153.5531778,2352
1749981153.5532796,2475
1749981153.5533817,2344
1749981153.556241,2086
1749981153.556365,1850
1749981153.5564702,1713
1749981153.5565739,1630
1749981153.5566788,1628
1749981153.5567832,1820
1749981153.5569024,2205
1749981153.5570052,2580
1749981153.5571082,2746
1749981153.557211,2639
1749981153.557315,2324
1749981153.5594702,1946
1749981153.5595787,1630
1749981153.5596826,1404
1749981153.5597851,1319
1749981153.5598881,1485
1749981153.5599918,1881
1749981153.5600948,2290
1749981153.5601983,2495
1749981153.5603015,2447
1749981153.5610905,2207
1749981153.5612047,1894
1749981153.5613086,1600
1749981153.561412,1364
1749981153.5615158,1227
1749981153.5617578,1331
1749981153.561863,1690
1749981153.561967,2103
1749981153.5620701,2334
1749981153.562173,2325
1749981153.5622766,2120
1749981153.5623798,1831
1749981153.5624828,1552
1749981153.5625992,1326
1749981153.5627031,1166
1749981153.5628235,1201
1749981153.562926,1488
1749981153.5630288,1884
1749981153.5631313,2152
1749981153.5633533,2209
1749981153.5634568,2059
1749981153.5635598,1786
1749981153.6122456,1489
1749981153.6123605,1248
1749981153.6138363,1082
1749981153.6140385,1102
1749981153.6141458,1370
1749981153.6159866,1770
1749981153.616096,2066
1749981153.6162012,2159
1749981153.6163056,2042
1749981153.6164088,1784
1749981153.6165123,1482
1749981153.61775,1231
1749981153.6178694,1054
1749981153.6179736,1039
1749981153.6180782,1266
1749981153.6181815,1654
1749981153.623469,1975
1749981153.6235492,2104
1749981153.6236203,2025
1749981153.6236844,1792
1749981153.6237462,1496
1749981153.623807,1237
1749981153.623867,1042
1749981153.6239276,984
1749981153.6239963,1167
1749981153.624061,1545
1749981153.6241257,1898
1749981153.6241908,2065
1749981153.6273487,2019
1749981153.627524,1805
1749981153.6276293,1512
1749981153.6277406,1240
1749981153.6278348,1025
1749981153.6278996,918
1749981153.6279645,1040
1749981153.6331255,1386
