1750239825.01811,1607
1750239825.0729778,1603
1750239825.075354,2087
1750239825.077494,2875
1750239825.0785923,3473
1750239825.0797873,3618
1750239825.0805771,3341
1750239825.0818183,2871
1750239825.0901742,2389
1750239825.0913079,1992
1750239825.0923858,1674
1750239825.0939233,1612
1750239825.0951328,2000
1750239825.0957088,2734
1750239825.09786,3366
1750239825.0991855,3592
1750239825.1003687,3393
1750239825.1013815,2943
1750239825.1025722,2435
1750239825.1035697,2009
1750239825.1046565,1688
1750239825.107688,1590
1750239825.1089647,1899
1750239825.1101618,2560
1750239825.1113756,3194
1750239825.1123426,3487
1750239825.1134615,3380
1750239825.114543,2978
1750239825.1154919,2457
1750239825.1164405,1989
1750239825.1176016,1652
1750239825.1188936,1536
1750239825.119811,1804
1750239825.1208773,2423
1750239825.1223512,3062
1750239825.1237934,3398
1750239825.1300535,3360
1750239825.1312196,3008
1750239825.1328037,2499
1750239825.1337955,1999
1750239825.1347919,1627
1750239825.135891,1468
1750239825.1367579,1694
1750239825.1377158,2298
1750239825.1392062,2980
1750239825.1402445,3380
1750239825.141263,3399
1750239825.1425421,3084
1750239825.143443,2595
1750239825.144576,2086
1750239825.1456213,1690
1750239825.1468332,1475
1750239825.1477833,1615
1750239825.1488402,2146
1750239825.1529858,2830
1750239825.154106,3287
1750239825.1552763,3384
1750239825.1564398,3138
1750239825.1573935,2682
1750239825.15833,2155
1750239825.1593623,1713
1750239825.160404,1439
1750239825.1615138,1518
1750239825.1627367,2027
1750239825.1643145,2760
1750239825.1655045,3300
1750239825.1669056,3455
1750239825.1679187,3233
1750239825.1696272,2779
1750239825.1741083,2249
1750239825.1827424,1803
1750239825.191437,1505
1750239825.1953976,1502
1750239825.1994965,1919
1750239825.1996982,2624
1750239825.1999187,3223
1750239825.2001636,3468
1750239825.200384,3326
1750239825.2006176,2910
1750239825.2008455,2376
1750239825.2011082,1899
1750239825.2013524,1561
1750239825.2015746,1489
1750239825.2017965,1834
1750239825.2020624,2511
1750239825.2023618,3145
1750239825.2026174,3444
1750239825.202952,3358
1750239825.2031198,2974
1750239825.2039964,2450
1750239825.204333,1954
1750239825.2049437,1586
1750239825.2051768,1454
1750239825.205559,1732
1750239825.2057712,2383
1750239825.2059867,3065
1750239825.206238,3434
1750239825.206441,3406
1750239825.2066567,3050
1750239825.2068841,2534
1750239825.2071269,2028
1750239825.2073467,1643
1750239825.2075727,1459
1750239825.2077932,1657
1750239825.208024,2251
1750239825.208241,2956
1750239825.2084508,3396
1750239825.2086563,3447
1750239825.2088997,3143
1750239825.2091343,2648
1750239825.2093735,2122
1750239825.209613,1703
1750239825.2098503,1463
1750239825.2100706,1587
1750239825.210297,2130
1750239825.2105258,2852
1750239825.2107236,3344
1750239825.2109668,3448
1750239825.211242,3187
1750239825.211499,2719
1750239825.2117498,2200
1750239825.2120123,1774
1750239825.2122614,1497
1750239825.2125087,1548
1750239825.2127686,2026
1750239825.213047,2750
1750239825.2132978,3303
1750239825.2135458,3478
1750239825.213806,3273
1750239825.2140534,2835
1750239825.2142987,2318
1750239825.2145436,1868
1750239825.2148125,1550
1750239825.2150583,1527
1750239825.215269,1941
1750239825.2154014,2662
1750239825.2155154,3270
1750239825.2163486,3502
1750239825.2167497,3341
1750239825.2168958,2922
1750239825.217054,2407
1750239825.2172112,1951
1750239825.2173417,1617
1750239825.217505,1533
1750239825.217632,1862
1750239825.2177799,2530
1750239825.217948,3159
1750239825.2181337,3453
1750239825.2182474,3369
1750239825.2184005,2998
1750239825.2186005,2487
1750239825.2187517,1993
1750239825.2189217,1612
1750239825.2190354,1466
1750239825.219182,1746
1750239825.2193315,2415
1750239825.222389,3116
1750239825.2245057,3485
1750239825.2282295,3446
1750239825.2285545,3084
1750239825.2286868,2579
1750239825.2289078,2085
1750239825.229155,1700
1750239825.22941,1499
1750239825.2296758,1682
1750239825.2298896,2282
1750239825.2301013,3008
1750239825.2303514,3454
1750239825.2306206,3490
1750239825.2308607,3166
1750239825.2311044,2669
1750239825.2313323,2164
1750239825.2315757,1761
1750239825.231822,1511
1750239825.2320948,1604
1750239825.2323213,2123
1750239825.2325768,2847
1750239825.2328336,3356
1750239825.233122,3471
1750239825.2333658,3213
1750239825.233612,2748
1750239825.2338495,2232
1750239825.2340891,1799
1750239825.2343204,1501
1750239825.23454,1530
1750239825.2346818,2012
1750239825.2348697,2772
1750239825.2351356,3363
1750239825.2353573,3536
1750239825.2355387,3300
1750239825.235664,2835
1750239825.235783,2322
1750239825.2358975,1894
1750239825.2365563,1574
1750239825.236671,1520
1750239825.2367852,1917
1750239825.2371416,2668
1750239825.2372572,3332
1750239825.2374756,3586
1750239825.2375903,3400
1750239825.2377043,2955
1750239825.2378194,2457
1750239825.2385032,2026
1750239825.2386267,1666
1750239825.2388086,1507
1750239825.2390082,1802
1750239825.2391918,2536
1750239825.2393725,3282
1750239825.2395542,3617
1750239825.2397363,3467
1750239825.2399216,3023
1750239825.2401056,2534
1750239825.2403111,2121
1750239825.240494,1764
1750239825.2406752,1536
1750239825.2408612,1728
1750239825.2410467,2414
1750239825.2412472,3219
1750239825.241432,3653
1750239825.2416153,3576
1750239825.2418218,3148
1750239825.2419617,2648
1750239825.2421825,2219
1750239825.242365,1860
1750239825.2425563,1595
1750239825.2427526,1693
1750239825.2429326,2279
1750239825.2431262,3063
1750239825.2434645,3552
1750239825.2436569,3562
1750239825.2438505,3196
1750239825.2440486,2709
1750239825.2442794,2258
1750239825.2444694,1884
1750239825.2446508,1593
1750239825.2448356,1628
1750239825.245156,2150
1750239825.2454257,2945
1750239825.2455366,3510
1750239825.2456458,3605
1750239825.2457538,3283
1750239825.2458613,2796
1750239825.245969,2329
1750239825.2462234,1952
1750239825.2463317,1645
1750239825.2464464,1606
1750239825.2466116,2039
1750239825.2467196,2810
1750239825.2468271,3427
1750239825.2469473,3584
1750239825.247055,3295
1750239825.2477896,2804
1750239825.2481985,2322
1750239825.2483907,1941
1750239825.2485023,1622
1750239825.2487679,1520
1750239825.2488773,1876
1750239825.2489872,2635
1750239825.2491188,3331
1750239825.2492294,3592
1750239825.2493384,3380
1750239825.2494462,2913
1750239825.2495873,2421
1750239825.2497032,2014
1750239825.2498178,1671
1750239825.2499318,1503
1750239825.250368,1772
1750239825.2506645,2481
1750239825.2509067,3211
1750239825.2511833,3543
1750239825.251309,3402
1750239825.2514224,2967
1750239825.2515411,2473
1750239825.2516546,2049
1750239825.2523177,1695
1750239825.2527013,1487
1750239825.2530618,1683
1750239825.2536514,2338
1750239825.253946,3092
1750239825.2541835,3498
1750239825.2544239,3438
1750239825.2546418,3046
1750239825.2548962,2558
1750239825.2551558,2107
1750239825.2553778,1729
1750239825.2556016,1475
1750239825.2558172,1608
1750239825.2560797,2222
1750239825.2563307,3014
1750239825.2566288,3499
1750239825.2568886,3508
1750239825.2571337,3144
1750239825.257381,2654
1750239825.2576041,2190
1750239825.2578695,1807
1750239825.258248,1523
1750239825.2584662,1568
1750239825.2586865,2083
1750239825.258898,2848
1750239825.2591264,3382
1750239825.2593572,3475
1750239825.2596047,3183
1750239825.2598412,2729
1750239825.2600818,2260
1750239825.2603047,1854
1750239825.2605407,1527
1750239825.260775,1505
1750239825.2609904,1976
1750239825.2612,2775
1750239825.261427,3401
1750239825.2616553,3567
1750239825.2619014,3306
1750239825.2621186,2845
1750239825.2623389,2366
1750239825.262563,1955
1750239825.2633944,1604
1750239825.2637827,1490
1750239825.2640266,1851
1750239825.2642457,2613
1750239825.2644575,3299
1750239825.2646832,3551
1750239825.264915,3347
1750239825.2651515,2900
1750239825.2653906,2424
1750239825.265616,2019
1750239825.2658503,1671
1750239825.26608,1503
1750239825.2663214,1777
1750239825.266536,2491
1750239825.2667766,3223
1750239825.2669902,3560
1750239825.2673104,3433
1750239825.2675729,3009
1750239825.2678308,2512
1750239825.2690573,2069
1750239825.2693121,1695
1750239825.269563,1478
1750239825.2697933,1673
1750239825.2700238,2320
1750239825.2702498,3060
1750239825.270482,3459
1750239825.2707233,3412
1750239825.2709653,3044
1750239825.271209,2572
1750239825.2714558,2121
1750239825.2717013,1734
1750239825.27192,1476
1750239825.2720037,1609
1750239825.2721217,2222
1750239825.2723448,3008
1750239825.2725992,3483
1750239825.2728364,3484
1750239825.2730842,3121
1750239825.2732215,2642
1750239825.273461,2189
1750239825.273706,1805
1750239825.2739694,1510
1750239825.274226,1550
1750239825.2744584,2085
1750239825.274701,2896
1750239825.2749295,3469
1750239825.2751565,3566
1750239825.2752743,3247
1750239825.2753694,2766
1750239825.2755945,2295
1750239825.2758646,1902
1750239825.2760956,1575
1750239825.276335,1517
1750239825.276499,1930
1750239825.2870917,2685
1750239825.298843,3307
1750239825.400512,3498
1750239825.4574764,3265
1750239825.5248702,2815
1750239825.5824454,2333
1750239825.6034648,1922
1750239825.6036758,1594
1750239825.60384,1510
1750239825.6040313,1884
1750239825.6102204,2631
1750239825.6157873,3299
1750239825.6164815,3550
1750239825.68625,3365
1750239825.754936,2926
1750239825.807403,2425
1750239825.8488574,1981
1750239825.8847752,1618
1750239825.9055564,1465
1750239825.9365323,1752
1750239825.9571457,2450
1750239825.988691,3148
1750239826.0198581,3473
1750239826.019946,3370
1750239826.020013,2981
1750239826.0200832,2495
1750239826.0201495,2035
1750239826.0202181,1652
1750239826.020284,1449
1750239826.0203547,1665
1750239826.0502927,2316
1750239826.0832868,3047
1750239826.0930495,3444
1750239826.1138844,3413
1750239826.1767871,3059
1750239826.17729,2578
1750239826.1778934,2105
1750239826.1786005,1711
1750239826.179091,1469
1750239826.1795805,1616
1750239826.1800673,2222
1750239826.180568,2996
1750239826.1810524,3478
1750239826.181534,3512
1750239826.195424,3176
1750239826.2694337,2691
1750239826.2837543,2214
1750239826.2841146,1817
1750239826.3087482,1522
1750239826.3190336,1555
1750239826.3191457,2063
1750239826.3192518,2847
1750239826.319357,3419
1750239826.3194618,3539
1750239826.3196135,3242
1750239826.31972,2764
1750239826.319805,2285
1750239826.320577,1888
1750239826.320652,1567
1750239826.320719,1517
1750239826.320786,1943
1750239826.3208523,2725
1750239826.3209188,3376
1750239826.3209858,3575
1750239826.3216257,3322
1750239826.3221881,2843
1750239826.322261,2344
1750239826.3223305,1929
1750239826.322397,1593
1750239826.3224635,1488
1750239826.32253,1847
1750239826.3226466,2607
1750239826.3227196,3313
1750239826.322941,3600
1750239826.32301,3427
1750239826.323077,2974
1750239826.323145,2455
1750239826.3232114,2009
1750239826.3232784,1658
1750239826.323345,1501
1750239826.323411,1745
1750239826.323477,2373
1750239826.3235428,3027
1750239826.3236089,3363
1750239826.323679,3310
1750239826.3237455,2953
1750239826.3238122,2453
1750239826.3238788,1963
1750239826.3239439,1584
1750239826.3240101,1421
1750239826.324076,1670
1750239826.3241417,2317
1750239826.3242073,3029
1750239826.3242753,3428
1750239826.3243418,3417
1750239826.3244083,3067
1750239826.3244743,2553
1750239826.3245404,2041
1750239826.324607,1647
1750239826.3246732,1439
1750239826.32474,1604
1750239826.324806,2181
1750239826.3248725,2909
1750239826.3249457,3380
1750239826.3250108,3448
1750239826.3250754,3149
1750239826.3646936,2663
1750239826.3649118,2149
1750239826.3649976,1736
1750239826.3650668,1474
1750239826.3651333,1549
1750239826.3652241,2054
1750239826.365285,2793
1750239826.368756,3341
1750239826.3802412,3493
1750239826.380317,3255
1750239826.380387,2786
1750239826.380454,2255
1750239826.3805218,1813
1750239826.3805914,1513
1750239826.3806593,1518
1750239826.3807302,1951
1750239826.3807971,2667
1750239826.3808653,3259
1750239826.3809314,3483
1750239826.3809981,3315
1750239826.381066,2878
1750239826.381132,2336
1750239826.3811994,1859
1750239826.381266,1523
1750239826.3813329,1469
1750239826.3813999,1841
1750239826.3814666,2540
1750239826.381536,3173
1750239826.3816016,3453
1750239826.3816683,3336
1750239826.3817346,2928
1750239826.3818018,2398
1750239826.381881,1913
1750239826.3819485,1553
1750239826.3820145,1434
1750239826.3820808,1734
1750239826.3821478,2409
1750239826.3822138,3094
1750239826.3822799,3445
1750239826.382346,3385
1750239826.3824131,3006
1750239826.3824782,2491
1750239826.3825436,1999
1750239826.3826094,1621
1750239826.382675,1442
1750239826.382737,1665
1750239826.4128244,2297
1750239826.413009,3020
1750239826.4131515,3441
1750239826.4148734,3446
1750239826.4150105,3103
1750239826.41515,2600
1750239826.4154341,2092
1750239826.4155293,1687
1750239826.4156415,1455
1750239826.4157338,1598
1750239826.4158251,2168
1750239826.415916,2904
1750239826.4160075,3392
1750239826.4160984,3481
1750239826.4161909,3204
1750239826.416283,2723
1750239826.4163747,2189
1750239826.416465,1749
1750239826.4165561,1480
1750239826.416647,1571
1750239826.4167376,2089
1750239826.4168286,2811
1750239826.4169188,3325
1750239826.41701,3463
1750239826.4221454,3245
1750239826.4222262,2808
1750239826.422299,2280
1750239826.422371,1812
1750239826.422443,1496
1750239826.4225318,1518
1750239826.422631,1988
1750239826.4227035,2730
1750239826.4227679,3319
1750239826.4229743,3526
1750239826.4230452,3351
1750239826.4231174,2922
1750239826.4231894,2385
1750239826.4232602,1900
1750239826.4233296,1557
1750239826.4234002,1506
1750239826.4240425,1891
1750239826.4241142,2601
1750239826.4241862,3238
1750239826.4242568,3524
1750239826.4243321,3422
1750239826.4244993,3028
1750239826.4245937,2495
1750239826.4246676,1989
1750239826.4247894,1612
1750239826.4248621,1492
1750239826.424933,1797
1750239826.425005,2467
1750239826.4250772,3141
1750239826.4251487,3492
1750239826.4252317,3455
1750239826.4254007,3101
1750239826.4260645,2584
1750239826.4262345,2065
1750239826.426393,1665
1750239826.4265604,1490
1750239826.4267185,1726
1750239826.4267797,2352
1750239826.4268744,3050
1750239826.4269412,3458
1750239826.427013,3484
1750239826.4270844,3176
1750239826.4271564,2680
1750239826.4272285,2144
1750239826.4273002,1712
1750239826.4274993,1486
1750239826.4275916,1662
1750239826.4276657,2252
1750239826.4277956,2972
1750239826.4283595,3424
1750239826.42886,3492
1750239826.429058,3218
1750239826.429229,2751
1750239826.4293978,2224
1750239826.4295652,1775
1750239826.4297314,1486
1750239826.429884,1559
1750239826.4300053,2077
1750239826.4301624,2825
1750239826.4303298,3372
1750239826.4304996,3524
1750239826.4306266,3287
1750239826.431071,2819
1750239826.4383948,2279
1750239826.4591503,1821
1750239826.4699063,1503
1750239826.4699857,1500
1750239826.470066,1945
1750239826.4701378,2695
1750239826.4702098,3318
1750239826.4702814,3547
1750239826.4703534,3358
1750239826.4704258,2905
1750239826.470498,2374
1750239826.4705706,1919
1750239826.4706428,1585
1750239826.4708476,1505
1750239826.4710217,1855
1750239826.4710946,2568
1750239826.4711714,3241
1750239826.471243,3547
1750239826.4713154,3426
1750239826.4713876,3004
1750239826.4714603,2474
1750239826.4715323,1993
1750239826.471604,1627
1750239826.471676,1485
1750239826.471748,1764
1750239826.4718204,2437
1750239826.4719462,3142
1750239826.4720197,3515
1750239826.4720926,3469
1750239826.4721646,3091
1750239826.472237,2560
1750239826.4723136,2043
1750239826.4723885,1649
1750239826.472474,1471
1750239826.4725487,1697
1750239826.472626,2316
1750239826.472702,3016
1750239826.4727762,3431
1750239826.4728508,3460
1750239826.4729247,3152
1750239826.4729993,2655
1750239826.4730737,2117
1750239826.4731524,1682
1750239826.473227,1450
1750239826.473301,1615
1750239826.4733756,2199
1750239826.4734492,2930
1750239826.4735243,3410
1750239826.4735982,3499
1750239826.4736724,3226
1750239826.4737484,2737
1750239826.4738243,2186
1750239826.473898,1739
1750239826.4739723,1478
1750239826.4740462,1571
1750239826.4741213,2075
1750239826.4741962,2784
1750239826.4742706,3308
1750239826.4743445,3484
1750239826.4744189,3298
1750239826.474493,2861
1750239826.474567,2306
1750239826.4746413,1816
1750239826.4747126,1502
1750239826.4747725,1534
1750239826.4748466,1998
1750239826.4749067,2718
1750239826.4749777,3293
1750239826.4750514,3511
1750239826.4751344,3361
1750239826.4766114,2945
1750239826.5263216,2395
1750239826.5264053,1887
1750239826.5264797,1535
1750239826.5265536,1490
1750239826.526627,1880
1750239826.5266998,2587
1750239826.526773,3221
1750239826.526847,3513
1750239826.52692,3424
1750239826.5269938,3040
1750239826.5270658,2504
1750239826.5271404,1985
1750239826.5272136,1602
1750239826.5272868,1482
1750239826.5273597,1788
1750239826.5274322,2455
1750239826.5275052,3128
1750239826.527578,3486
1750239826.527655,3466
1750239826.527731,3127
1750239826.5278063,2611
1750239826.5278823,2080
1750239826.527958,1672
1750239826.5280333,1502
1750239826.5281093,1745
1750239826.5281844,2367
1750239826.5282629,3049
1750239826.528339,3442
1750239826.5284142,3470
1750239826.5284898,3177
1750239826.558237,2689
1750239826.6083431,2141
1750239826.6110735,1690
1750239826.6112459,1455
1750239826.6114147,1632
1750239826.6115823,2224
1750239826.6117501,2947
1750239826.6119297,3412
1750239826.612099,3508
1750239826.612266,3260
1750239826.6134639,2796
1750239826.613908,2246
1750239826.6144714,1778
1750239826.6146514,1498
1750239826.6150978,1593
1750239826.615285,2114
1750239826.6177661,2837
1750239826.617913,3354
1750239826.6180556,3504
1750239826.6181977,3301
1750239826.6183887,2869
1750239826.6185856,2338
1750239826.6633096,1864
1750239826.6870081,1537
1750239826.6871278,1540
1750239826.7048757,1996
1750239826.7654126,2746
1750239826.765503,3360
1750239826.7655783,3589
1750239826.7710397,3415
1750239826.8108447,2976
1750239826.81115,2434
1750239826.8425364,1956
1750239826.8466785,1614
1750239826.8469658,1542
1750239826.8471396,1890
1750239826.8480942,2574
1750239826.849403,3213
1750239826.849514,3521
1750239826.8497057,3445
1750239826.8498108,3068
1750239826.8499155,2544
1750239826.8500748,2040
1750239826.8501787,1665
1750239826.8502824,1540
1750239826.850386,1839
1750239826.8504903,2505
1750239826.850594,3187
1750239826.8507133,3545
1750239826.8508174,3511
1750239826.850921,3155
1750239826.8510249,2638
1750239826.8511283,2121
1750239826.851233,1722
1750239826.8513367,1534
1750239826.8514397,1748
1750239826.8515427,2365
1750239826.8516212,3082
1750239826.8516955,3514
1750239826.8517702,3547
1750239826.8518453,3226
1750239826.851948,2723
1750239826.8520246,2198
1750239826.8522213,1785
1750239826.8523562,1550
1750239826.852501,1677
1750239826.8526344,2210
1750239826.8527777,2911
1750239826.8529139,3387
1750239826.8530462,3493
1750239826.8531806,3244
1750239826.8533123,2781
1750239826.853454,2246
1750239826.8535903,1797
1750239826.8537245,1515
1750239826.8538685,1586
1750239826.8540094,2087
1750239826.8541443,2815
1750239826.8542879,3355
1750239826.8544316,3519
1750239826.854566,3309
1750239826.8552394,2861
1750239826.8553903,2325
1750239826.8555267,1866
1750239826.855659,1562
1750239826.8558016,1568
1750239826.8559344,1993
1750239826.856069,2694
1750239826.8562043,3273
1750239826.8563468,3504
1750239826.8564806,3363
1750239826.8566098,2954
1750239826.8566847,2422
1750239826.858704,1936
1750239826.8594778,1595
1750239826.8746686,1538
1750239826.8750763,1903
1750239826.8752277,2586
1750239826.8753657,3208
1750239826.8755107,3495
1750239826.8756416,3409
1750239826.8757713,3031
1750239826.8759887,2499
1750239826.8760972,1980
1750239826.8764617,1598
1750239826.8765776,1480
1750239826.8766878,1790
1750239826.876812,2458
1750239826.876922,3131
1750239826.877034,3488
1750239826.8771558,3466
1750239826.877301,3126
1750239826.8774123,2607
1750239826.8775206,2071
1750239826.8776298,1661
1750239826.8777568,1484
1750239826.8778687,1714
1750239826.8779776,2326
1750239826.8781471,3018
1750239826.8782742,3434
1750239826.8783796,3483
1750239826.8784845,3197
1750239826.8786151,2709
1750239826.878838,2165
1750239826.8790677,1719
1750239826.8791733,1473
1750239826.879282,1619
1750239826.8793864,2186
1750239826.8794916,2912
1750239826.8796036,3397
1750239826.8797085,3505
1750239826.8798118,3258
1750239826.8799188,2802
1750239826.8800223,2277
1750239826.8801262,1834
1750239826.8803153,1555
1750239826.8804204,1626
1750239826.880693,2131
1750239826.8807688,2866
1750239826.8889143,3413
1750239826.8890285,3576
1750239826.8891354,3351
1750239826.889242,2877
1750239826.8893478,2306
1750239826.8894534,1810
1750239826.8895593,1481
1750239826.8896666,1481
1750239826.8897717,1918
1750239826.8898778,2637
1750239826.8899848,3234
1750239826.8901083,3478
1750239826.8902154,3352
1750239826.8903213,2955
1750239826.8904269,2419
1750239826.8905325,1907
1750239826.8906379,1534
1750239826.9215972,1461
1750239826.9216828,1837
1750239826.9217563,2552
1750239826.9221246,3208
1750239826.934152,3512
1750239826.9351392,3425
1750239826.9365277,3035
1750239826.9366443,2496
1750239826.936756,1974
1750239826.943324,1589
1750239826.9939184,1466
1750239827.014004,1767
1750239827.0140903,2436
1750239827.0193613,3124
1750239827.0194893,3499
1750239827.0195622,3486
1750239827.0196352,3137
1750239827.0197067,2602
1750239827.019778,2052
1750239827.0198572,1630
1750239827.0199292,1443
1750239827.0200016,1671
1750239827.0200734,2297
1750239827.020146,3021
1750239827.0202184,3468
1750239827.0202909,3527
1750239827.020363,3227
1750239827.020435,2718
1750239827.0205061,2157
1750239827.0205786,1698
1750239827.0206494,1439
1750239827.0207222,1576
1750239827.0207942,2150
1750239827.0208657,2903
1750239827.020938,3413
1750239827.0210094,3521
1750239827.021081,3250
1750239827.021153,2769
1750239827.021225,2238
1750239827.0212965,1795
1750239827.021368,1508
1750239827.0214403,1563
1750239827.021512,2060
1750239827.0215836,2809
1750239827.0216558,3378
1750239827.0217276,3555
1750239827.021808,3336
1750239827.0218914,2872
1750239827.0219643,2318
1750239827.022037,1840
1750239827.0221086,1518
1750239827.02218,1522
1750239827.0222523,1974
1750239827.0223236,2716
1750239827.0223951,3326
1750239827.0224667,3561
1750239827.022538,3411
1750239827.0226095,2996
1750239827.022681,2457
1750239827.0366836,1943
1750239827.0367637,1559
1750239827.0371351,1472
1750239827.0372105,1851
1750239827.0372837,2588
1750239827.0373566,3267
1750239827.0374296,3578
1750239827.037508,3483
1750239827.0750337,3088
1750239827.0766358,2553
1750239827.0951846,2039
1750239827.0993307,1648
1750239827.099588,1507
1750239827.0997355,1796
1750239827.0998776,2461
1750239827.1188102,3141
1750239827.1198623,3492
1750239827.119947,3459
1750239827.1200256,3118
1750239827.1201053,2620
1750239827.1201832,2102
1750239827.12026,1672
1750239827.1203363,1452
1750239827.1204119,1666
1750239827.1204884,2320
1750239827.120565,3083
1750239827.1206405,3531
1750239827.1207173,3545
1750239827.1207936,3202
1750239827.1208694,2695
1750239827.1209447,2172
1750239827.1210203,1747
1750239827.1210961,1486
1750239827.121172,1598
1750239827.1212478,2155
1750239827.1213236,2916
1750239827.121399,3444
1750239827.121476,3564
1750239827.1215513,3295
1750239827.1216276,2810
1750239827.1217034,2273
1750239827.1217794,1827
1750239827.121855,1533
1750239827.1578422,1576
1750239827.1582067,2058
1750239827.1779082,2793
1750239827.1784313,3357
1750239827.178577,3535
1750239827.1786945,3324
1750239827.1787586,2871
1750239827.1788268,2332
1750239827.17889,1866
1750239827.1789565,1547
1750239827.1790302,1540
1750239827.1791136,1981
1750239827.1791875,2727
1750239827.1792607,3354
1750239827.1793344,3593
1750239827.1794076,3426
1750239827.1794808,2989
1750239827.1795547,2452
1750239827.1796281,1973
1750239827.192019,1620
1750239827.204268,1524
1750239827.2096272,1856
1750239827.2097478,2544
1750239827.209959,3206
1750239827.2100334,3530
1750239827.210107,3448
1750239827.265055,3054
1750239827.3163965,2516
1750239827.317678,2001
1750239827.317979,1615
1750239827.3180609,1472
1750239827.3181367,1755
1750239827.3182127,2421
1750239827.3182895,3118
1750239827.318366,3490
1750239827.3184423,3459
1750239827.3185186,3099
1750239827.318601,2578
1750239827.318677,2055
1750239827.3187447,1653
1750239827.3188105,1465
1750239827.3192267,1677
1750239827.3193018,2285
1750239827.3193762,2985
1750239827.3194506,3405
1750239827.3195245,3445
1750239827.3195994,3151
1750239827.3196774,2667
1750239827.319755,2127
1750239827.3198318,1677
1750239827.3199081,1428
1750239827.3200061,1587
1750239827.320085,2185
1750239827.3201623,2940
1750239827.3284023,3433
1750239827.328508,3525
1750239827.3285937,3259
1750239827.3286679,2788
1750239827.328741,2245
1750239827.3288147,1777
1750239827.3288896,1478
1750239827.3289638,1546
1750239827.329038,2063
1750239827.3291113,2813
1750239827.3291852,3366
1750239827.3292582,3533
1750239827.3293319,3329
1750239827.3294044,2889
1750239827.3294773,2347
1750239827.3295503,1855
1750239827.329623,1507
1750239827.329696,1488
1750239827.3297687,1927
1750239827.3298411,2670
1750239827.3299134,3293
1750239827.3299868,3543
1750239827.330059,3398
1750239827.3301318,2977
1750239827.3302047,2428
1750239827.3302774,1919
1750239827.3303502,1552
1750239827.3304226,1478
1750239827.330507,1844
1750239827.3305802,2551
1750239827.3306525,3206
1750239827.3307228,3517
1750239827.3307855,3438
1750239827.3308592,3057
1750239827.3309243,2524
1750239827.3309965,2001
1750239827.3310704,1605
1750239827.3311434,1471
1750239827.3312156,1784
1750239827.331289,2486
1750239827.3314059,3205
1750239827.3314836,3583
1750239827.335669,3551
1750239827.3392973,3193
1750239827.346596,2677
1750239827.3970098,2143
1750239827.3972528,1705
1750239827.397373,1477
1750239827.3974788,1683
1750239827.3981466,2333
1750239827.3982553,3092
1750239827.4026332,3536
1750239827.402746,3556
1750239827.4028535,3230
1750239827.4029968,2744
1750239827.4033248,2228
1750239827.403539,1780
1750239827.4039965,1487
1750239827.4041054,1593
1750239827.40421,2181
1750239827.4043143,2979
1750239827.4072478,3514
1750239827.4073272,3606
1750239827.4074018,3310
1750239827.4074767,2826
1750239827.4075515,2303
1750239827.4076257,1847
1750239827.4077,1509
1750239827.4077742,1511
1750239827.4078486,1998
1750239827.4079225,2780
1750239827.407999,3379
1750239827.408075,3544
1750239827.4081519,3294
1750239827.4082265,2831
1750239827.4083014,2333
1750239827.4083755,1913
1750239827.4084501,1584
1750239827.4085252,1518
1750239827.4244547,1906
1750239827.4245698,2651
1750239827.424676,3302
1750239827.4247801,3541
1750239827.4248998,3343
1750239827.425004,2889
1750239827.4251087,2378
1750239827.4252384,1939
1750239827.4253442,1589
1750239827.425449,1472
1750239827.4255536,1824
1750239827.4331083,2602
1750239827.454803,3357
1750239827.4551513,3684
1750239827.4552693,3522
1750239827.455374,3065
1750239827.4554784,2555
1750239827.4555824,2115
1750239827.4556866,1736
1750239827.4557908,1512
1750239827.4558945,1720
1750239827.4559984,2410
1750239827.456102,3198
1750239827.456206,3615
1750239827.4563143,3538
1750239827.4564192,3121
1750239827.4565232,2620
1750239827.456628,2174
1750239827.4567316,1796
1750239827.4568365,1536
1750239827.4569414,1668
1750239827.4592774,2295
1750239827.459416,3102
1750239827.459522,3594
1750239827.459627,3596
1750239827.4597313,3216
1750239827.4602911,2712
1750239827.481424,2237
1750239827.5144067,1841
1750239827.5182445,1549
1750239827.5185478,1611
1750239827.5242496,2167
1750239827.5274632,2973
1750239827.5276005,3527
1750239827.528226,3603
1750239827.5283618,3268
1750239827.5284603,2767
1750239827.5354679,2273
1750239827.5355518,1868
1750239827.5390246,1562
1750239827.5461931,1564
1750239827.550125,2036
1750239827.5502954,2809
1750239827.550364,3407
1750239827.5504327,3569
1750239827.5505009,3320
1750239827.550567,2864
1750239827.5506325,2366
1750239827.5506928,1928
1750239827.550757,1578
1750239827.5508168,1508
1750239827.5680027,1925
1750239827.6190755,2710
1750239827.6193974,3385
1750239827.679973,3618
1750239827.707647,3403
1750239827.7078173,2945
1750239827.7079968,2443
1750239827.7081335,2012
1750239827.708283,1664
1750239827.7083867,1529
1750239827.7084894,1834
1750239827.7086701,2542
1750239827.7087746,3236
1750239827.708878,3549
1750239827.7122688,3422
1750239827.7123623,3002
1750239827.712448,2490
1750239827.7125518,2025
1750239827.7126372,1650
1750239827.7127206,1472
1750239827.712804,1724
1750239827.7128873,2407
1750239827.7129862,3150
1750239827.7130702,3539
1750239827.713154,3482
1750239827.7132952,3098
1750239827.7133937,2597
1750239827.7134807,2118
1750239827.7135644,1721
1750239827.713648,1482
1750239827.7137313,1650
1750239827.7138143,2291
1750239827.714388,3086
1750239827.7144735,3563
1750239827.7178366,3563
1750239827.725268,3183
1750239827.7254124,2673
1750239827.7254865,2197
1750239827.7255607,1809
1750239827.725634,1526
1750239827.7257066,1580
1750239827.7257838,2113
1750239827.725857,2903
1750239827.7259302,3461
1750239827.726003,3557
1750239827.7260752,3236
1750239827.7261481,2740
1750239827.726221,2249
1750239827.7262938,1840
1750239827.7263663,1521
1750239827.7264392,1505
1750239827.7265117,1978
1750239827.726584,2778
1750239827.7266564,3409
1750239827.726729,3579
1750239827.7268016,3309
1750239827.726874,2826
1750239827.7269466,2324
1750239827.727019,1908
1750239827.7270913,1574
1750239827.7271633,1495
1750239827.7272367,1878
1750239827.7273095,2627
1750239827.727388,3281
1750239827.727461,3515
1750239827.7275336,3316
1750239827.7276065,2872
1750239827.7276845,2374
1750239827.7277565,1934
1750239827.727829,1571
1750239827.7279086,1431
1750239827.7279813,1755
1750239827.7282286,2503
1750239827.728302,3240
1750239827.728375,3569
1750239827.7284472,3434
1750239827.728517,3005
1750239827.728597,2504
1750239827.72867,2061
1750239827.7287421,1697
1750239827.7288148,1502
1750239827.7288868,1723
1750239827.7289593,2391
1750239827.729032,3143
1750239827.7291048,3544
1750239827.729177,3487
1750239827.7292497,3091
1750239827.7293217,2585
1750239827.7293944,2118
1750239827.7294667,1741
1750239827.729539,1508
1750239827.7296112,1658
1750239827.7296908,2262
1750239827.7297635,3025
1750239827.729836,3493
1750239827.729908,3512
1750239827.72998,3166
1750239827.7300525,2673
1750239827.7301257,2183
1750239827.7301974,1773
1750239827.73027,1485
1750239827.730342,1556
1750239827.7304144,2107
1750239827.7304862,2901
1750239827.7305584,3451
1750239827.7306304,3538
1750239827.7307034,3222
1750239827.7307742,2735
1750239827.730848,2250
1750239827.730921,1847
1750239827.7309942,1532
1750239827.7310667,1515
1750239827.7311387,1980
1750239827.7312114,2772
1750239827.7312834,3398
1750239827.731356,3571
1750239827.739579,3303
1750239827.739656,2824
1750239827.7397292,2329
1750239827.7398024,1915
1750239827.7398756,1576
1750239827.7399485,1486
1750239827.740507,1868
1750239827.7405803,2640
1750239827.7406542,3333
1750239827.7407267,3590
1750239827.7407997,3384
1750239827.740899,2920
1750239827.740972,2414
1750239827.741045,1986
1750239827.741119,1635
1750239827.7411916,1486
1750239827.7412643,1784
1750239827.7413373,2509
1750239827.7414107,3239
1750239827.7414968,3572
1750239827.7415693,3437
1750239827.7416425,3000
1750239827.7609088,2490
1750239827.7749243,2047
1750239827.7750137,1682
1750239827.7750866,1484
1750239827.7751586,1704
1750239827.7753808,2380
1750239827.7755375,3145
1750239827.7821922,3553
1750239827.7908123,3488
1750239827.7910147,3082
1750239827.7911198,2572
1750239827.791224,2098
1750239827.7913294,1699
1750239827.7914357,1440
1750239827.7915418,1583
1750239827.791648,2217
1750239827.791754,3021
1750239827.7918603,3504
1750239827.7919524,3503
1750239827.7920327,3131
1750239827.7921169,2641
1750239827.7921965,2177
1750239827.792276,1788
1750239827.792355,1496
1750239827.7924345,1547
1750239827.7925138,2082
1750239827.7926023,2868
1750239827.7926817,3419
1750239827.7927613,3517
1750239827.7928407,3212
1750239827.79292,2725
1750239827.7929993,2215
1750239827.7930777,1784
1750239827.7931573,1464
1750239827.7932363,1468
1750239827.7933156,1949
1750239827.793395,2732
1750239827.7934735,3339
1750239827.7935524,3512
1750239827.7936316,3273
1750239827.79371,2819
1750239827.7937896,2317
1750239827.7938688,1882
1750239827.7939482,1537
1750239827.7940276,1466
1750239827.794107,1871
1750239827.7941854,2647
1750239827.794264,3324
1750239827.7943428,3566
1750239827.7944212,3356
1750239827.7945,2895
1750239827.7945852,2393
1750239827.794664,1963
1750239827.8009164,1608
1750239827.8009977,1458
1750239827.8010757,1758
1750239827.8011541,2492
1750239827.8012314,3234
1750239827.8013096,3578
1750239827.80159,3449
1750239827.8016677,3013
1750239827.8017478,2497
1750239827.8508582,2036
1750239827.9058928,1659
1750239827.9088292,1459
1750239827.9227097,1683
1750239827.9230456,2352
1750239827.923378,3095
1750239827.9237096,3488
1750239827.9261203,3435
1750239827.9362133,3062
1750239827.9363725,2578
1750239827.9364805,2107
1750239827.9365873,1702
1750239827.9366932,1445
1750239827.9367979,1599
1750239827.936902,2233
1750239827.937009,3029
1750239827.937115,3510
1750239827.9372194,3519
1750239827.9373243,3158
1750239827.9383345,2660
1750239827.9384518,2177
1750239827.9474592,1774
1750239827.9692488,1486
1750239827.9693677,1548
1750239827.9694371,2095
1750239827.9695082,2896
1750239827.9695797,3458
1750239827.9696481,3556
1750239827.969717,3239
1750239827.9697845,2746
1750239827.9698503,2256
1750239827.9699154,1857
1750239827.9699814,1552
1750239827.9700503,1539
1750239827.9701176,1994
1750239827.9701838,2770
1750239827.9702506,3392
1750239827.9703174,3581
1750239827.970389,3341
1750239827.970456,2873
1750239827.9705215,2362
1750239827.9705875,1922
1750239827.9706492,1581
1750239827.971122,1512
1750239827.971197,1907
1750239827.9712665,2659
1750239827.9713337,3313
1750239827.9896066,3558
1750239828.0189366,3385
1750239828.0655506,2961
1750239828.0656304,2457
1750239828.0656993,1991
1750239828.0657666,1614
1750239828.0658336,1484
1750239828.0659,1817
1750239828.0659695,2543
1750239828.0660357,3230
1750239828.0661016,3526
1750239828.0661674,3408
1750239828.0662334,3023
1750239828.0662994,2542
1750239828.066365,2075
1750239828.0664318,1676
1750239828.0664976,1476
1750239828.0665638,1723
1750239828.066629,2407
1750239828.066689,3138
1750239828.066753,3503
1750239828.0668125,3433
1750239828.0668795,3063
1750239828.0669448,2590
1750239828.0670102,2126
1750239828.0670753,1717
1750239828.067141,1446
1750239828.0672064,1582
1750239828.067272,2207
1750239828.067346,3004
1750239828.0674117,3488
1750239828.067477,3499
1750239828.0675423,3138
1750239828.067608,2651
1750239828.0676737,2193
1750239828.0677392,1819
1750239828.0678046,1542
1750239828.0678701,1589
1750239828.0679357,2110
1750239828.0680015,2894
1750239828.0680668,3454
1750239828.0681322,3560
1750239828.0681977,3255
1750239828.0682638,2772
1750239828.0683289,2285
1750239828.0683942,1878
1750239828.0684593,1555
1750239828.0685248,1519
1750239828.0688164,1962
1750239828.0688853,2743
1750239828.068952,3376
1750239828.069018,3563
1750239828.069084,3312
1750239828.0691493,2842
1750239828.069215,2349
1750239828.0692801,1940
1750239828.069346,1613
1750239828.0694118,1523
1750239828.0694776,1886
1750239828.0695431,2630
1750239828.0696087,3309
1750239828.0696743,3577
1750239828.0697398,3396
1750239828.0698051,2947
1750239828.069879,2437
1750239828.0699446,2000
1750239828.0700104,1653
1750239828.0700765,1509
1750239828.0701432,1795
1750239828.0702095,2492
1750239828.0702753,3202
1750239828.0703406,3542
1750239828.0704181,3438
1750239828.0816267,3027
1750239828.081707,2522
1750239828.0817752,2062
1750239828.0818424,1692
1750239828.0819237,1496
1750239828.0819905,1710
1750239828.082057,2362
1750239828.0821235,3102
1750239828.0821896,3508
1750239828.082256,3467
1750239828.0823228,3085
1750239828.0823886,2581
1750239828.0824552,2102
1750239828.0825214,1715
1750239828.0825865,1477
1750239828.082648,1618
1750239828.0827088,2209
1750239828.0827725,2958
1750239828.082832,3420
1750239828.0828977,3451
1750239828.082964,3128
1750239828.0830293,2656
1750239828.083095,2174
1750239828.0831609,1762
1750239828.0832272,1474
1750239828.0832932,1547
1750239828.0833595,2100
1750239828.0834248,2896
1750239828.083491,3448
1750239828.0835571,3547
1750239828.0836246,3248
1750239828.0836902,2774
1750239828.0837557,2284
1750239828.0838215,1870
1750239828.083887,1548
1750239828.0839524,1521
1750239828.0840187,1968
1750239828.0840845,2742
1750239828.0841503,3365
1750239828.0842156,3556
1750239828.0842812,3317
1750239828.0843472,2856
1750239828.0844126,2357
1750239828.0844777,1936
1750239828.0845432,1598
1750239828.084609,1503
1750239828.0846746,1867
1750239828.0847406,2616
1750239828.0848062,3300
1750239828.084872,3569
1750239828.0849376,3389
1750239828.085003,2945
1750239828.0850682,2445
1750239828.0851345,2007
1750239828.08982,1644
1750239828.1230206,1477
1750239828.134367,1753
1750239828.1482472,2463
1750239828.1483502,3192
1750239828.1484203,3535
1750239828.1484902,3417
1750239828.1648078,2997
1750239828.1649582,2496
1750239828.165066,2048
1750239828.1651728,1683
1750239828.1652946,1484
1750239828.1653771,1693
1750239828.1654577,2340
1750239828.1655376,3072
1750239828.1656177,3471
1750239828.1656983,3439
1750239828.1657786,3086
1750239828.1895177,2608
1750239828.189649,2131
1750239828.189733,1721
1750239828.18996,1464
1750239828.1900861,1614
1750239828.1904275,2237
1750239828.1905088,3017
1750239828.2793546,3490
1750239828.302479,3508
1750239828.3086684,3172
1750239828.308749,2700
1750239828.308823,2227
1750239828.3088968,1821
1750239828.30897,1525
1750239828.3090425,1580
1750239828.3091152,2125
1750239828.309188,2930
1750239828.3092604,3492
1750239828.3093321,3584
1750239828.309405,3266
1750239828.3094783,2782
1750239828.3095465,2302
1750239828.309614,1897
1750239828.309681,1560
1750239828.3097506,1503
1750239828.309819,1936
1750239828.3098862,2730
1750239828.3099544,3384
1750239828.310023,3582
1750239828.3100965,3326
1750239828.3101697,2849
1750239828.3102427,2353
1750239828.3103156,1939
1750239828.3103871,1590
1750239828.31046,1472
1750239828.310533,1828
1750239828.310606,2597
1750239828.3106773,3312
1750239828.3107376,3588
1750239828.3108072,3390
1750239828.310869,2927
1750239828.3109355,2429
1750239828.3110082,2005
1750239828.3110807,1646
1750239828.3111537,1468
1750239828.311225,1735
1750239828.3112984,2457
1750239828.3113725,3215
1750239828.311445,3578
1750239828.3115177,3461
1750239828.3115907,3031
1750239828.3116617,2525
1750239828.31174,2073
1750239828.3118126,1698
1750239828.311896,1480
1750239828.311969,1674
1750239828.3120422,2322
1750239828.312112,3071
1750239828.3121824,3477
1750239828.3123274,3433
1750239828.3124013,3060
1750239828.3124738,2577
1750239828.312546,2108
1750239828.312619,1708
1750239828.3126915,1447
1750239828.3127637,1584
1750239828.3128364,2206
1750239828.312909,3008
1750239828.312981,3506
1750239828.3130538,3531
1750239828.3131266,3178
1750239828.3131988,2685
1750239828.3132718,2202
1750239828.313344,1800
1750239828.313417,1506
1750239828.3134897,1548
1750239828.3135617,2068
1750239828.3136344,2857
1750239828.3137174,3431
1750239828.313791,3556
1750239828.3138638,3264
1750239828.3139365,2777
1750239828.3140085,2275
1750239828.3140807,1870
1750239828.3141534,1573
1750239828.314226,1550
1750239828.3142982,1959
1750239828.3143716,2671
1750239828.3144445,3262
1750239828.314522,3477
1750239828.3145952,3297
1750239828.3146677,2864
1750239828.314736,2335
1750239828.314801,1863
1750239828.3148658,1525
1750239828.3149261,1484
1750239828.3188837,1899
1750239828.335457,2647
1750239828.36975,3298
1750239828.3698864,3556
1750239828.3699965,3402
1750239828.3701053,2974
1750239828.3702137,2446
1750239828.3703356,1968
1750239828.3704433,1611
1750239828.3705509,1493
1750239828.3706586,1796
1750239828.370786,2473
1750239828.3708947,3156
1750239828.371002,3505
1750239828.3748498,3446
1750239828.3749855,3065
1750239828.375574,2535
1750239828.3757117,2022
1750239828.375986,1632
1750239828.3761406,1468
1750239828.376272,1720
1750239828.3765326,2375
1750239828.3770585,3099
1750239828.3775811,3512
1750239828.3781066,3516
1750239828.3964064,3177
1750239828.3967397,2666
1750239828.397077,2134
1750239828.4027188,1700
1750239828.4228299,1464
1750239828.4234014,1645
1750239828.4234812,2274
1750239828.4235659,3049
1750239828.42364,3532
1750239828.4237144,3584
1750239828.4237983,3269
1750239828.4238677,2780
1750239828.4239416,2260
1750239828.424015,1822
1750239828.4240882,1530
1750239828.424162,1594
1750239828.4242356,2108
1750239828.4778686,2850
1750239828.497491,3383
1750239828.542367,3522
1750239828.5521753,3289
1750239828.5533068,2843
1750239828.5534263,2315
1750239828.553674,1842
1750239828.5574024,1505
1750239828.557528,1522
1750239828.5576363,2028
1750239828.5577416,2828
1750239828.5595233,3443
1750239828.5599494,3621
1750239828.5605657,3387
1750239828.5609324,2932
1750239828.561311,2417
1750239828.5617223,1959
1750239828.5623264,1595
1750239828.5630023,1503
1750239828.5640013,1888
1750239828.5673127,2653
1750239828.5674028,3343
1750239828.5674834,3621
1750239828.5677683,3458
1750239828.6342518,3025
1750239828.660333,2515
1750239828.660445,2052
1750239828.6605504,1671
1750239828.660655,1502
1750239828.662527,1785
1750239828.6626039,2500
1750239828.6626751,3240
1750239828.6627462,3608
1750239828.6628156,3519
1750239828.6628766,3107
1750239828.6629424,2590
1750239828.663013,2111
1750239828.6630828,1725
1750239828.6631534,1512
1750239828.663224,1699
1750239828.6632946,2321
1750239828.663365,3050
1750239828.663435,3472
1750239828.663505,3467
1750239828.6635754,3115
1750239828.6636455,2611
1750239828.6637213,2109
1750239828.6637917,1706
1750239828.6638622,1482
1750239828.6639326,1657
1750239828.6640031,2276
1750239828.6640735,3038
1750239828.664144,3499
1750239828.6642153,3528
1750239828.664286,3209
1750239828.6643565,2740
1750239828.6644268,2245
1750239828.6644967,1812
1750239828.6645672,1500
1750239828.664638,1556
1750239828.6647081,2108
1750239828.6647782,2920
1750239828.664849,3500
1750239828.6649194,3621
1750239828.66499,3329
1750239828.6650605,2846
1750239828.6651304,2341
1750239828.6652253,1915
1750239828.6652985,1588
1750239828.6653693,1557
1750239828.6654403,1998
1750239828.6655107,2773
1750239828.6655815,3408
1750239828.665657,3612
1750239828.6657271,3383
1750239828.665798,2919
1750239828.665868,2412
1750239828.6659384,1978
1750239828.666009,1625
1750239828.666079,1512
1750239828.6661496,1868
1750239828.6662202,2631
1750239828.6662905,3347
1750239828.6663613,3645
1750239828.666432,3473
1750239828.6665022,3017
1750239828.6665726,2499
1750239828.6666427,2056
1750239828.6667132,1697
1750239828.666784,1529
1750239828.6668541,1794
1750239828.6669247,2497
1750239828.6669958,3242
1750239828.667066,3614
1750239828.6671362,3515
1750239828.6672068,3089
1750239828.6672769,2569
1750239828.6673474,2106
1750239828.6674173,1738
1750239828.6674879,1525
1750239828.6675584,1700
1750239828.6676373,2316
1750239828.6677077,3056
1750239828.6677785,3494
1750239828.6678493,3493
1750239828.6679196,3131
1750239828.66799,2619
1750239828.6680608,2119
1750239828.6681309,1726
1750239828.6682012,1499
1750239828.6682715,1648
1750239828.6683419,2238
1750239828.668412,2996
1750239828.6684823,3488
1750239828.6686518,3550
1750239828.6818855,3235
1750239828.6819916,2737
1750239828.6898453,2223
1750239828.6918483,1810
1750239828.6949837,1543
1750239828.695066,1611
1750239828.6951458,2113
1750239828.6960769,2849
1750239828.6961515,3387
1750239828.6962242,3522
1750239828.6963286,3271
1750239828.6964018,2805
1750239828.6964767,2283
1750239828.6965504,1836
1750239828.6966226,1516
1750239828.6972702,1517
1750239828.6973538,1997
1750239828.6974275,2797
1750239828.6987698,3440
1750239828.7089975,3635
1750239828.7091134,3390
1750239828.709219,2917
1750239828.709324,2411
1750239828.7346084,1982
1750239828.7347004,1634
1750239828.7347822,1519
1750239828.7348642,1867
1750239828.7349505,2622
1750239828.735037,3333
1750239828.7351234,3629
1750239828.740397,3462
1750239828.740702,3014
1750239828.740927,2502
1750239828.741197,2056
1750239828.7668097,1687
1750239828.767013,1511
1750239828.7670956,1770
1750239828.7671776,2464
1750239828.767258,3197
1750239828.7673392,3562
1750239828.7674189,3478
1750239828.7674992,3081
1750239828.7675798,2577
1750239828.7676609,2098
1750239828.7677417,1698
1750239828.7678208,1479
1750239828.7679126,1692
1750239828.7679927,2365
1750239828.777308,3139
1750239828.777395,3565
1750239828.7774763,3526
1750239828.777556,3144
1750239828.7776356,2644
1750239828.777722,2172
1750239828.7778015,1788
1750239828.7778807,1536
1750239828.7779605,1638
1750239828.7780406,2181
1750239828.7781203,2909
1750239828.7782,3388
1750239828.7782805,3459
1750239828.7783604,3167
1750239828.7784398,2692
1750239828.7959197,2181
1750239828.7963154,1751
1750239828.796421,1473
1750239828.796527,1567
1750239828.796632,2136
1750239828.7967417,2941
1750239828.7968478,3507
1750239828.7969537,3619
1750239828.7970605,3328
1750239828.7971673,2844
1750239828.7972732,2337
1750239828.7973793,1915
1750239828.7974913,1599
1750239828.797597,1562
1750239828.7976942,1969
1750239828.797771,2696
1750239828.7978466,3306
1750239828.7979221,3526
1750239828.7979975,3337
1750239828.7980738,2895
1750239828.7981493,2371
1750239828.7982247,1907
1750239828.7982998,1553
1750239828.7983747,1473
1750239828.798451,1860
1750239828.7985263,2619
1750239828.798864,3304
1750239828.7993765,3579
1750239828.799511,3418
1750239828.7995887,2991
1750239828.799665,2491
1750239828.7997415,2042
1750239828.7998168,1668
1750239828.7998927,1494
1750239828.799969,1767
1750239828.8000445,2483
1750239828.8001206,3233
1750239828.8001957,3596
1750239828.8002713,3483
1750239828.8003469,3053
1750239828.8004234,2543
1750239828.8004987,2087
1750239828.800574,1709
1750239828.8006494,1478
1750239828.8007245,1653
1750239828.8007998,2302
1750239828.8008757,3086
1750239828.8009512,3540
1750239828.8010266,3522
1750239828.8011022,3143
1750239828.8011773,2642
1750239828.8012512,2167
1750239828.801332,1767
1750239828.8014069,1488
1750239828.8014824,1589
1750239828.8015578,2179
1750239828.8016334,2982
1750239828.8017106,3507
1750239828.8017862,3560
1750239828.801861,3225
1750239828.8021417,2739
1750239828.8022876,2258
1750239828.8024247,1849
1750239828.8035522,1535
1750239828.803709,1546
1750239828.8038428,2040
1750239828.803967,2819
1750239828.8041012,3395
1750239828.8042362,3522
1750239828.8044674,3238
1750239828.8046124,2763
1750239828.8047218,2267
1750239828.8048742,1851
1750239828.8050156,1536
1750239828.8051558,1507
1750239828.862233,1941
1750239828.8644142,2699
1750239828.8645082,3316
1750239828.8645916,3515
1750239828.8646753,3303
1750239828.8647583,2862
1750239828.8648407,2360
1750239828.8649232,1913
1750239828.8650048,1564
1750239828.865087,1478
1750239828.8651688,1854
1750239828.8653452,2599
1750239828.8654318,3275
1750239828.8655195,3547
1750239828.865607,3391
1750239828.8656917,2963
1750239828.8657994,2449
1750239828.865885,1987
1750239828.86597,1623
1750239828.8660533,1466
1750239828.8661366,1727
1750239828.8671925,2387
1750239828.867278,3082
1750239828.867361,3444
1750239828.8674426,3388
1750239828.8675556,3011
1750239828.8676388,2496
1750239828.8677251,2001
1750239828.867807,1608
1750239828.867889,1412
1750239828.8709867,1642
1750239828.8710985,2321
1750239828.8711832,3101
1750239828.8712666,3539
1750239828.8713496,3510
1750239828.8715181,3125
1750239828.8716106,2621
1750239828.8717015,2151
1750239828.8717923,1762
1750239828.871901,1488
1750239828.8719928,1574
1750239828.8720834,2147
1750239828.8722227,2947
1750239828.8723443,3484
1750239828.8724957,3548
1750239828.8726168,3209
1750239828.8837273,2717
1750239828.8838162,2240
1750239828.8853378,1836
1750239828.9413533,1513
1750239828.941437,1508
1750239828.941512,2006
1750239828.9415872,2819
1750239828.9490662,3435
1750239828.949147,3573
1750239828.949222,3271
1750239828.9492965,2779
1750239828.9493701,2292
1750239828.9494426,1892
1750239828.949515,1570
1750239828.9495873,1511
1750239828.9496598,1930
1750239828.9497323,2715
1750239828.9498048,3382
1750239828.949877,3603
1750239828.9499478,3371
1750239828.9500191,2899
1750239828.9500902,2392
1750239828.9501805,1963
1750239828.9565797,1620
1750239828.9698424,1505
1750239828.9946072,1844
1750239828.9999056,2578
1750239829.0006661,3275
1750239829.0012045,3572
1750239829.0014813,3423
1750239829.001694,2990
1750239829.0019357,2474
1750239829.03501,2010
1750239829.0698717,1640
1750239829.0862973,1484
1750239829.086624,1767
1750239829.1155005,2466
1750239829.1156626,3185
1750239829.1157377,3532
1750239829.1173694,3440
1750239829.1174524,3047
1750239829.1175225,2550
1750239829.1175907,2077
1750239829.1176605,1682
1750239829.1177268,1461
1750239829.1178052,1660
1750239829.1259322,2315
1750239829.1598759,3081
1750239829.1599712,3518
1750239829.160052,3505
1750239829.1601307,3144
1750239829.1602106,2648
1750239829.1602914,2156
1750239829.16037,1744
1750239829.160449,1477
1750239829.1605268,1594
1750239829.1606061,2181
1750239829.160684,2962
1750239829.160762,3469
1750239829.1608424,3528
1750239829.1609213,3207
1750239829.1610003,2724
1750239829.161079,2227
1750239829.1611664,1806
1750239829.1612437,1501
1750239829.1613226,1534
1750239829.1614003,2045
1750239829.1614778,2834
1750239829.1615558,3421
1750239829.161634,3564
1750239829.1617117,3292
1750239829.1617892,2817
1750239829.16188,2311
1750239829.1619613,1879
1750239829.1620395,1544
1750239829.1621177,1495
1750239829.1621957,1921
1750239829.162274,2694
1750239829.1623518,3346
1750239829.1624303,3574
1750239829.1625082,3367
1750239829.162587,2915
1750239829.162665,2406
1750239829.1627443,1963
1750239829.1628237,1617
1750239829.1629026,1519
1750239829.1629822,1872
1750239829.16422,2598
1750239829.1643748,3263
1750239829.1644557,3537
1750239829.1645358,3393
1750239829.1646156,2985
1750239829.1649036,2485
1750239829.1649818,2014
1750239829.165058,1625
1750239829.1651416,1459
1750239829.1652281,1752
1750239829.1656313,2467
1750239829.1657407,3192
1750239829.1658468,3537
1750239829.165951,3447
1750239829.1660552,3063
1750239829.1661599,2575
1750239829.1662643,2103
1750239829.166369,1699
1750239829.1664734,1466
1750239829.1665776,1667
1750239829.1666815,2341
1750239829.1667855,3135
1750239829.1668901,3582
1750239829.166994,3555
1750239829.16711,3171
1750239829.167214,2671
1750239829.1673172,2200
1750239829.1674223,1809
1750239829.1675267,1536
1750239829.167631,1627
1750239829.167734,2201
1750239829.1678374,2999
1750239829.1679413,3530
1750239829.168045,3594
1750239829.1681597,3258
1750239829.1682634,2762
1750239829.1684356,2269
1750239829.1685517,1855
1750239829.1686566,1539
1750239829.1687608,1547
1750239829.1688645,2039
1750239829.1689682,2828
1750239829.1690772,3425
1750239829.170251,3575
1750239829.1703565,3306
1750239829.170461,2829
1750239829.1705647,2318
1750239829.1706684,1882
1750239829.1707716,1549
1750239829.1708755,1512
1750239829.1709793,1947
1750239829.171089,2713
1750239829.1711922,3346
1750239829.17128,3555
1750239829.1713543,3347
1750239829.1714287,2904
1750239829.1754777,2395
1750239829.1755633,1938
1750239829.175643,1573
1750239829.1757221,1469
1750239829.175801,1835
1750239829.1758804,2586
1750239829.1759593,3276
1750239829.1760588,3561
1750239829.176138,3413
1750239829.1762166,2998
1750239829.1762946,2500
1750239829.1763728,2032
1750239829.1764505,1636
1750239829.176529,1455
1750239829.176607,1745
1750239829.176685,2488
1750239829.1767628,3257
1750239829.1768405,3622
1750239829.1769264,3511
1750239829.177004,3092
1750239829.1770823,2595
1750239829.17716,2139
1750239829.1772375,1750
1750239829.1773155,1511
1750239829.1773937,1691
1750239829.1774724,2349
1750239829.17755,3139
1750239829.1776283,3593
1750239829.1777058,3577
1750239829.1777837,3205
1750239829.177863,2708
1750239829.177942,2223
1750239829.17802,1805
1750239829.178098,1507
1750239829.1781762,1585
1750239829.178254,2149
1750239829.1783311,2930
1750239829.1784086,3448
1750239829.1784863,3512
1750239829.1785743,3193
1750239829.1786525,2712
1750239829.1787302,2215
1750239829.178808,1788
1750239829.1788914,1470
1750239829.1789691,1498
1750239829.179047,2023
1750239829.179125,2834
1750239829.1792026,3420
1750239829.17928,3535
1750239829.179358,3231
1750239829.1794355,2753
1750239829.1795135,2276
1750239829.1795914,1877
1750239829.179669,1545
1750239829.1797469,1469
1750239829.179825,1872
1750239829.1799035,2650
1750239829.1799815,3322
1750239829.1800594,3555
1750239829.1801372,3331
1750239829.1802158,2863
1750239829.1802933,2361
1750239829.1803718,1933
1750239829.1804495,1584
1750239829.2347732,1459
1750239829.2690043,1796
1750239829.2756433,2545
1750239829.2763298,3264
1750239829.2793171,3565
1750239829.2794087,3404
1750239829.2794912,2959
1750239829.2795725,2452
1750239829.2796698,2008
1750239829.2797534,1648
1750239829.279835,1471
1750239829.2799194,1717
1750239829.2800007,2394
1750239829.280082,3120
1750239829.2801762,3495
1750239829.280258,3430
1750239829.2803392,3047
1750239829.2804203,2546
1750239829.280502,2061
1750239829.2811368,1661
1750239829.2812176,1442
1750239829.2854211,1647
1750239829.2855504,2306
1750239829.2857006,3075
1750239829.285792,3514
1750239829.2859025,3502
1750239829.285993,3142
1750239829.2860827,2644
1750239829.2861724,2152
1750239829.2862618,1744
1750239829.2863667,1477
1750239829.286457,1587
1750239829.286547,2166
1750239829.286636,2950
1750239829.2867112,3468
1750239829.2868104,3533
1750239829.2868807,3208
1750239829.2869704,2719
1750239829.2870617,2222
1750239829.2871506,1802
1750239829.2872531,1488
1750239829.2873428,1503
1750239829.2874324,2007
1750239829.2875214,2812
1750239829.28761,3422
1750239829.287713,3571
1750239829.2878017,3286
1750239829.287891,2792
1750239829.2879798,2278
1750239829.2880814,1853
1750239829.2881713,1526
1750239829.2882605,1474
1750239829.28835,1883
1750239829.2884393,2639
1750239829.3072717,3286
1750239829.3073628,3521
1750239829.3074422,3326
1750239829.3075209,2878
1750239829.3075993,2361
1750239829.3076777,1907
1750239829.307756,1547
1750239829.3078346,1429
1750239829.3079133,1762
1750239829.3079908,2485
1750239829.3080704,3182
1750239829.3081486,3499
1750239829.3082263,3374
1750239829.3083043,2945
1750239829.3083823,2413
1750239829.3084602,1942
1750239829.3085682,1590
1750239829.3210337,1459
1750239829.321123,1750
1750239829.3212023,2444
1750239829.3212812,3172
1750239829.3213599,3546
1750239829.3214388,3479
1750239829.3215168,3081
1750239829.321595,2559
1750239829.3216734,2070
1750239829.3217514,1681
1750239829.3218293,1469
1750239829.3219182,1656
1750239829.3219962,2287
1750239829.3220747,3048
1750239829.3221521,3508
1750239829.3222299,3520
1750239829.3223076,3162
1750239829.3223944,2649
1750239829.3224719,2142
1750239829.3225496,1731
1750239829.322629,1468
1750239829.3227012,1577
1750239829.322762,2151
1750239829.3228343,2935
1750239829.3228948,3467
1750239829.3229692,3550
1750239829.3230474,3234
1750239829.3231258,2736
1750239829.3232055,2223
1750239829.3232837,1799
1750239829.3233619,1495
1750239829.3234398,1524
1750239829.3235178,2033
1750239829.3235953,2831
1750239829.323673,3435
1750239829.323751,3587
1750239829.3238292,3313
1750239829.3239071,2828
1750239829.3239849,2311
1750239829.3240623,1870
1750239829.32414,1528
1750239829.3242173,1475
1750239829.3242948,1905
1750239829.3243754,2691
1750239829.3244526,3357
1750239829.3245306,3585
1750239829.3246083,3372
1750239829.3246858,2914
1750239829.3247635,2401
1750239829.3248415,1950
1750239829.3249192,1586
1750239829.3249972,1467
1750239829.3250754,1812
1750239829.325153,2558
1750239829.3550444,3265
1750239829.3551328,3574
1750239829.355225,3442
1750239829.3553045,3022
1750239829.355384,2504
1750239829.3554623,2025
1750239829.355542,1640
1750239829.355624,1472
1750239829.3557029,1748
1750239829.3557806,2441
1750239829.3558624,3163
1750239829.3559408,3525
1750239829.3560185,3456
1750239829.3561199,3074
1750239829.3667474,2570
1750239829.3743284,2083
1750239829.3744414,1680
1750239829.3745484,1455
1750239829.3747566,1642
1750239829.3748658,2281
1750239829.3749707,3045
1750239829.3750753,3496
1750239829.37518,3504
1750239829.3752956,3150
1750239829.3754005,2649
1750239829.3754785,2157
1750239829.3755505,1757
1750239829.3756213,1497
1750239829.375692,1600
1750239829.3757622,2162
1750239829.375832,2932
1750239829.3759024,3444
1750239829.3759723,3514
1750239829.3760428,3196
1750239829.3761134,2709
1750239829.3761835,2214
1750239829.3762543,1799
1750239829.376325,1493
1750239829.3763952,1517
1750239829.3764663,2029
1750239829.376536,2837
1750239829.3766062,3444
1750239829.376676,3589
1750239829.376746,3306
1750239829.376816,2825
1750239829.3768864,2328
1750239829.376956,1915
1750239829.3770266,1586
1750239829.3770964,1519
1750239829.3771658,1918
1750239829.3772361,2680
1750239829.3773057,3345
1750239829.377376,3587
1750239829.377448,3385
1750239829.377519,2928
1750239829.3775885,2417
1750239829.3776586,1984
1750239829.3777282,1641
1750239829.377798,1516
1750239829.377868,1821
1750239829.3781207,2520
1750239829.3781908,3210
1750239829.3782616,3528
1750239829.3783321,3404
1750239829.3784022,2978
1750239829.3784719,2455
1750239829.378555,1996
1750239829.3786263,1643
1750239829.4435701,1493
1750239829.4820304,1762
1750239829.482108,2451
1750239829.4821784,3189
1750239829.4822557,3570
1750239829.4823656,3495
1750239829.482474,3090
1750239829.4825828,2575
1750239829.4826918,2103
1750239829.4827995,1718
1750239829.482908,1489
1750239829.4895265,1664
1750239829.489742,2312
1750239829.4898498,3108
1750239829.4899318,3578
1750239829.490031,3566
1750239829.4901137,3184
1750239829.4901948,2688
1750239829.4902756,2227
1750239829.4903579,1841
1750239829.4905264,1553
1750239829.4906132,1614
1750239829.4906962,2171
1750239829.4907775,2980
1750239829.4908733,3534
1750239829.4909527,3609
1750239829.4910336,3267
1750239829.4915934,2766
1750239829.4924285,2278
1750239829.4925478,1875
1750239829.4926977,1566
1750239829.492776,1566
1750239829.4928527,2045
1750239829.492929,2825
1750239829.4933279,3423
1750239829.539022,3581
1750239829.5391037,3327
1750239829.5391777,2867
1750239829.5392532,2367
1750239829.5393267,1931
1750239829.5394003,1592
1750239829.539474,1545
1750239829.5395477,1978
1750239829.539621,2756
1750239829.5396955,3404
1750239829.5397694,3614
1750239829.5398428,3397
1750239829.5399158,2946
1750239829.5399892,2442
1750239829.5400627,1995
1750239829.5401359,1633
1750239829.5402093,1511
1750239829.5402832,1855
1750239829.5403562,2604
1750239829.540431,3313
1750239829.5405047,3615
1750239829.540578,3466
1750239829.540656,3033
1750239829.54073,2519
1750239829.5408018,2054
1750239829.540875,1670
1750239829.540948,1479
1750239829.541021,1725
1750239829.541094,2409
1750239829.5411675,3149
1750239829.5412412,3533
1750239829.5413148,3472
1750239829.541388,3091
1750239829.5414615,2599
1750239829.5415351,2131
1750239829.541609,1738
1750239829.5416822,1505
1750239829.5417557,1684
1750239829.5418296,2329
1750239829.5419192,3108
1750239829.5419927,3562
1750239829.5420654,3550
1750239829.5421383,3177
1750239829.5422115,2675
1750239829.542285,2191
1750239829.5423582,1786
1750239829.542431,1505
1750239829.5425038,1587
1750239829.5425856,2147
1750239829.5426586,2934
1750239829.5427208,3467
1750239829.5427876,3549
1750239829.5428605,3235
1750239829.5429332,2750
1750239829.5430064,2253
1750239829.5430796,1835
1750239829.5431523,1527
1750239829.5432255,1544
1750239829.5432985,2040
1750239829.543373,2825
1750239829.543447,3417
1750239829.5435202,3563
1750239829.543593,3299
1750239829.543666,2835
1750239829.543743,2338
1750239829.5438166,1905
1750239829.5438895,1561
1750239829.5439625,1500
1750239829.5440357,1929
1750239829.544108,2726
1750239829.544181,3402
1750239829.5442545,3629
1750239829.5443277,3403
1750239829.5444005,2936
1750239829.5444736,2430
1750239829.54456,1994
1750239829.5446332,1635
1750239829.544706,1497
1750239829.5447793,1817
1750239829.5448523,2548
1750239829.5449252,3256
1750239829.5449982,3567
1750239829.5450706,3435
1750239829.5451436,3021
1750239829.5494454,2523
1750239829.5495374,2064
1750239829.5588977,1679
1750239829.559047,1491
1750239829.5591314,1746
1750239829.5592108,2437
1750239829.5681295,3169
1750239829.5682182,3531
1750239829.5685697,3450
1750239829.5686498,3067
1750239829.568729,2583
1750239829.5688066,2114
1750239829.5688853,1709
1750239829.5690184,1465
1750239829.5691252,1648
1750239829.5692315,2314
1750239829.5693376,3116
1750239829.5694437,3577
1750239829.5698555,3558
1750239829.5699818,3175
1750239829.5896876,2673
1750239829.6038206,2201
1750239829.6039011,1812
1750239829.6039767,1536
1750239829.6040506,1609
1750239829.604125,2152
1750239829.6041987,2925
1750239829.604273,3456
1750239829.604347,3545
1750239829.6044207,3239
1750239829.604495,2754
1750239829.6045687,2251
1750239829.6046429,1826
1750239829.6047206,1510
1750239829.6047974,1522
1750239829.6048713,2016
1750239829.604945,2807
1750239829.6050172,3412
1750239829.605091,3570
1750239829.6051645,3309
1750239829.6052535,2841
1750239829.605333,2342
1750239829.6054065,1916
1750239829.605478,1578
1750239829.6055517,1515
1750239829.605625,1932
1750239829.6056979,2717
1750239829.6057703,3391
1750239829.605831,3623
1750239829.6058996,3398
1750239829.6059725,2922
1750239829.6060536,2406
1750239829.6061287,1966
1750239829.6062021,1610
1750239829.6062748,1475
1750239829.6063468,1794
1750239829.6064196,2528
1750239829.606493,3249
1750239829.606566,3577
1750239829.6066406,3450
1750239829.6067111,3026
1750239829.6067717,2510
1750239829.606834,2035
1750239829.6069026,1640
1750239829.606975,1441
1750239829.607048,1683
1750239829.6071215,2368
1750239829.6071944,3105
1750239829.6072679,3477
1750239829.6073408,3403
1750239829.6074207,3021
1750239829.607498,2538
1750239829.6075702,2078
1750239829.6076431,1683
1750239829.6077158,1436
1750239829.6077888,1605
1750239829.6078618,2258
1750239829.6079347,3060
1750239829.6080098,3526
1750239829.6080844,3505
1750239829.608149,3113
1750239829.6082222,2606
1750239829.6082952,2133
1750239829.6083686,1743
1750239829.6084414,1464
1750239829.6085143,1541
1750239829.6140037,2112
1750239829.6140854,2929
1750239829.6141598,3487
1750239829.6142342,3566
1750239829.6143076,3229
1750239829.6143906,2728
1750239829.6144948,2236
1750239829.6145687,1830
1750239829.614642,1514
1750239829.6147077,1504
1750239829.6147711,1975
1750239829.614837,2757
1750239829.6149046,3366
1750239829.6149776,3533
1750239829.6150508,3283
1750239829.6151242,2824
1750239829.6152089,2327
1750239829.6152842,1889
1750239829.6153617,1538
1750239829.6154346,1470
1750239829.6155071,1886
1750239829.6155798,2665
1750239829.6156528,3332
1750239829.6157253,3565
1750239829.6157982,3359
1750239829.6158712,2909
1750239829.6159441,2403
1750239829.616017,1962
1750239829.6160893,1614
1750239829.6161623,1504
1750239829.6162348,1844
1750239829.6163073,2571
1750239829.61638,3256
1750239829.6164527,3547
1750239829.6244087,3409
1750239829.6422174,2991
1750239829.6423025,2481
1750239829.7048306,2000
1750239829.774132,1605
1750239829.7743084,1428
1750239829.7743993,1704
1750239829.7744887,2417
1750239829.774578,3168
1750239829.7752542,3552
1750239829.7753663,3490
1750239829.7754583,3106
1750239829.7755492,2598
1750239829.775676,2096
1750239829.7757678,1676
1750239829.7758753,1438
1750239829.7759666,1625
1750239829.776079,2272
1750239829.7775166,3045
1750239829.7776196,3498
1750239829.7777183,3506
1750239829.7778165,3158
1750239829.7779145,2663
1750239829.778013,2159
1750239829.7781107,1735
1750239829.7781894,1454
1750239829.7782576,1553
1750239829.7783387,2126
1750239829.77842,2920
1750239829.7785006,3462
1750239829.77859,3558
1750239829.7786531,3248
1750239829.7787225,2742
1750239829.7787852,2213
1750239829.7788517,1781
1750239829.7789207,1477
1750239829.778993,1492
1750239829.7790625,1959
1750239829.7791324,2715
1750239829.7792044,3311
1750239829.7792802,3502
1750239829.7793498,3275
1750239829.7794213,2805
1750239829.779492,2267
1750239829.7795615,1805
1750239829.779634,1474
1750239829.7797046,1452
1750239829.779781,1903
1750239829.7798538,2692
1750239829.7799244,3358
1750239829.7799952,3595
1750239829.7800667,3390
1750239829.7801375,2925
1750239829.7802067,2395
1750239829.780278,1935
1750239829.7803483,1578
1750239829.78042,1458
1750239829.7804987,1780
1750239829.780566,2487
1750239829.7806342,3173
1750239829.7807019,3494
1750239829.7807674,3392
1750239829.780849,2991
1750239829.7809196,2468
1750239829.7809973,1967
1750239829.7810652,1571
1750239829.7811322,1411
1750239829.7811987,1703
1750239829.7812655,2413
1750239829.7813325,3156
1750239829.7813985,3541
1750239829.7814665,3488
1750239829.7815344,3102
1750239829.7816021,2578
1750239829.7816699,2067
1750239829.7817373,1659
1750239829.7818053,1437
1750239829.7859826,1617
1750239829.7993152,2228
1750239829.7994,2968
1750239829.7994792,3423
1750239829.799558,3463
1750239829.7996361,3140
1750239829.799714,2640
1750239829.799792,2116
1750239829.79987,1684
1750239829.7999477,1428
1750239829.8000255,1575
1750239829.800103,2195
1750239829.800184,3010
1750239829.8002498,3541
1750239829.8003159,3608
1750239829.8003814,3280
1750239829.800447,2782
1750239829.800513,2270
1750239829.8005793,1833
1750239829.8006449,1508
1750239829.8007107,1515
1750239829.8007765,2008
1750239829.8008423,2800
1750239829.8009083,3413
1750239829.800974,3594
1750239829.8010402,3354
1750239829.8011065,2886
1750239829.801172,2357
1750239829.8012383,1893
1750239829.8013031,1543
1750239829.8013687,1492
1750239829.8014371,1899
1750239829.8015282,2626
1750239829.8015962,3237
1750239829.801663,3462
1750239829.8017304,3300
1750239829.8017964,2889
1750239829.8018696,2371
1750239829.801937,1877
1750239829.8020039,1496
1750239829.8020713,1410
1750239829.8021398,1811
1750239829.8022053,2586
1750239829.8022804,3286
1750239829.80236,3574
1750239829.8024373,3432
1750239829.8025148,3011
1750239829.8025928,2486
1750239829.8026702,1989
1750239829.802734,1586
1750239829.8028052,1416
1750239829.8028653,1704
1750239829.8029342,2419
1750239829.8030124,3164
1750239829.8030894,3538
1750239829.8031673,3471
1750239829.8032453,3088
1750239829.8033226,2590
1750239829.8034017,2102
1750239829.8743503,1685
1750239829.9151034,1431
1750239829.962144,1594
1750239829.9922068,2232
1750239830.0226839,3017
1750239830.0338957,3491
1750239830.0341046,3507
1750239830.0342321,3153
1750239830.034374,2652
1750239830.0345447,2153
1750239830.0346477,1734
1750239830.0347528,1451
1750239830.0348582,1544
1750239830.0349734,2127
1750239830.0350847,2944
1750239830.0352106,3506
1750239830.035319,3598
1750239830.0354393,3271
1750239830.0361643,2763
1750239830.0362868,2254
1750239830.0363991,1842
1750239830.0424945,1540
1750239830.078105,1544
1750239830.0781956,2009
1750239830.114247,2776
1750239830.1400204,3385
1750239830.1401522,3566
1750239830.1402307,3317
1750239830.1403167,2832
1750239830.1404042,2296
1750239830.1405852,1848
1750239830.1406584,1522
1750239830.1407394,1494
1750239830.1408207,1943
1750239830.1416214,2746
1750239830.141783,3434
1750239830.1418524,3682
1750239830.1419299,3469
1750239830.1419973,2985
1750239830.148871,2444
1750239830.1489456,1980
1750239830.1490135,1618
1750239830.1490808,1486
1750239830.1491477,1796
1750239830.1492143,2503
1750239830.1496916,3202
1750239830.1497684,3530
1750239830.1498365,3420
1750239830.1499054,3002
1750239830.1499734,2475
1750239830.1500401,1987
1750239830.1501076,1601
1750239830.150178,1438
1750239830.150246,1724
1750239830.150314,2442
1750239830.1503808,3202
1750239830.150448,3592
1750239830.150516,3522
1750239830.1505816,3120
1750239830.1506422,2600
1750239830.1507077,2103
1750239830.1507688,1692
1750239830.1508389,1453
1750239830.150906,1637
1750239830.1509726,2297
1750239830.15104,3102
1750239830.151215,3579
1750239830.1512916,3576
1750239830.1513608,3193
1750239830.1520019,2669
1750239830.189868,2169
1750239830.19027,1759
1750239830.190516,1479
1750239830.190759,1561
1750239830.1910005,2123
1750239830.191242,2923
1750239830.1914837,3484
1750239830.191725,3590
1750239830.192025,3280
1750239830.1922693,2779
1750239830.192511,2261
1750239830.1956756,1827
1750239830.1959474,1512
1750239830.19619,1521
1750239830.1964486,2002
1750239830.196689,2776
1750239830.1969492,3373
1750239830.197209,3539
1750239830.1974623,3288
1750239830.197811,2816
1750239830.2027144,2293
1750239830.202825,1848
1750239830.2029302,1525
1750239830.203035,1509
1750239830.2031507,1962
1750239830.2032688,2743
1750239830.2033741,3386
1750239830.2034788,3605
1750239830.2035835,3398
1750239830.2036877,2943
1750239830.2037916,2410
1750239830.2038956,1932
1750239830.204,1558
1750239830.2041044,1444
1750239830.2042081,1792
1750239830.204312,2527
1750239830.2044163,3225
1750239830.2045202,3539
1750239830.2046237,3421
1750239830.2047274,3005
1750239830.204833,2477
1750239830.2049375,1983
1750239830.205041,1595
1750239830.2051454,1435
1750239830.2052782,1717
1750239830.2053847,2418
1750239830.2054892,3155
1750239830.2055938,3534
1750239830.206349,3472
1750239830.2064586,3081
1750239830.206563,2560
1750239830.2066665,2058
1750239830.2067704,1654
1750239830.2068737,1437
1750239830.2069776,1639
1750239830.2070806,2293
1750239830.207194,3074
1750239830.2072985,3544
1750239830.2074022,3566
1750239830.2077801,3218
1750239830.2078834,2708
1750239830.2079868,2189
1750239830.208091,1758
1750239830.2081943,1483
1750239830.2082987,1582
1750239830.2589934,2136
1750239830.263555,2894
1750239830.2637007,3415
1750239830.2638068,3516
1750239830.2639112,3231
1750239830.264015,2741
1750239830.2641232,2203
1750239830.2642376,1754
1750239830.2643409,1463
1750239830.2644455,1527
1750239830.264549,2042
1750239830.2646532,2798
1750239830.2650802,3353
1750239830.2651894,3505
1750239830.2653673,3278
1750239830.2654848,2835
1750239830.2655907,2310
1750239830.2656958,1832
1750239830.2658,1481
1750239830.2659042,1470
1750239830.2660081,1957
1750239830.2661123,2768
1750239830.2662232,3422
1750239830.2663274,3633
1750239830.2664318,3417
1750239830.2665353,2961
1750239830.266677,2431
1750239830.2737496,1949
1750239830.2739725,1563
1750239830.2740934,1442
1750239830.2742012,1796
1750239830.2743883,2545
1750239830.2745068,3250
1750239830.274626,3560
1750239830.2747443,3434
1750239830.2748625,3020
1750239830.274981,2500
1750239830.2751,2006
1750239830.2752378,1595
1750239830.2753565,1406
1750239830.275474,1680
1750239830.2755928,2401
1750239830.2757108,3168
1750239830.2758284,3567
1750239830.2759461,3505
1750239830.2760823,3110
1750239830.2761998,2598
1750239830.276319,2105
1750239830.2764392,1695
1750239830.2765582,1457
1750239830.2766764,1645
1750239830.2767947,2308
1750239830.276935,3108
1750239830.2770534,3579
1750239830.2771714,3578
1750239830.2776952,3206
1750239830.2778208,2696
1750239830.2779396,2200
1750239830.2780669,1788
1750239830.2781847,1510
1750239830.2783022,1600
1750239830.2784197,2162
1750239830.2824743,2940
1750239830.2825894,3468
1750239830.2826993,3555
1750239830.2828076,3252
1750239830.2829146,2763
1750239830.283019,2247
1750239830.283123,1812
1750239830.2832272,1502
1750239830.2833314,1528
1750239830.283435,2022
1750239830.2835386,2794
1750239830.283642,3386
1750239830.289149,3553
1750239830.2972193,3301
1750239830.2975616,2813
1750239830.2986805,2268
1750239830.2989795,1812
1750239830.2990592,1490
1750239830.2991362,1472
1750239830.2992125,1914
1750239830.2992876,2687
1750239830.3005886,3344
1750239830.300699,3586
1750239830.3019428,3384
1750239830.3020678,2913
1750239830.3021724,2374
1750239830.3022768,1917
1750239830.3023803,1573
1750239830.3024845,1473
1750239830.302597,1812
1750239830.3027008,2538
1750239830.302805,3245
1750239830.3029087,3573
1750239830.303012,3451
1750239830.303115,3014
1750239830.303206,2472
1750239830.3032799,1986
1750239830.3033543,1609
1750239830.3034277,1447
1750239830.3035016,1717
1750239830.3035822,2414
1750239830.3036559,3168
1750239830.303729,3574
1750239830.3038027,3525
1750239830.3038764,3128
1750239830.3039498,2597
1750239830.3040237,2093
1750239830.304097,1689
1750239830.3041716,1469
1750239830.3042452,1667
1750239830.304319,2328
1750239830.304393,3123
1750239830.3044703,3596
1750239830.3045437,3594
1750239830.30462,3213
1750239830.3046935,2687
1750239830.304767,2179
1750239830.3048406,1761
1750239830.3049147,1479
1750239830.3049884,1578
1750239830.305062,2170
1750239830.3051357,2994
1750239830.3052254,3552
1750239830.3053005,3625
1750239830.3053741,3281
1750239830.3054483,2773
1750239830.3055303,2270
1750239830.3056045,1846
1750239830.3056786,1519
1750239830.3057523,1523
1750239830.3058257,2036
1750239830.3058996,2869
1750239830.3059733,3505
1750239830.306047,3657
1750239830.393219,3358
1750239830.4033473,2854
1750239830.403475,2337
1750239830.403597,1905
1750239830.4037368,1560
1750239830.4609756,1494
1750239830.508944,1909
1750239830.5248318,2692
1750239830.5368254,3367
1750239830.5375283,3607
1750239830.562932,3398
1750239830.5810854,2934
1750239830.581201,2409
1750239830.5822291,1948
1750239830.5827699,1580
1750239830.5932808,1459
1750239830.5933626,1797
1750239830.5934374,2532
1750239830.5935097,3234
1750239830.6317077,3539
1750239830.6524665,3398
1750239830.6528623,2961
1750239830.6532419,2432
1750239830.6536279,1956
1750239830.6590638,1590
1750239830.6733177,1448
1750239830.6920862,1747
1750239830.6924696,2464
1750239830.6928425,3210
1750239830.6932147,3587
1750239830.6935844,3514
1750239830.6939557,3112
1750239830.6943257,2586
1750239830.694685,2082
1750239830.6950321,1672
1750239830.7151012,1448
1750239830.7375207,1645
1750239830.7379878,2290
1750239830.7383351,3055
1750239830.7387068,3508
1750239830.739112,3520
1750239830.7460246,3176
1750239830.746167,2674
1750239830.7464993,2161
1750239830.759164,1733
1750239830.7592475,1465
1750239830.759325,1583
1750239830.7594035,2162
1750239830.7594802,2933
1750239830.7595575,3445
1750239830.759633,3523
1750239830.759734,3214
1750239830.7598114,2716
1750239830.759888,2184
1750239830.7599642,1741
1750239830.76004,1452
1750239830.7601159,1526
1750239830.7602067,2070
1750239830.7602825,2868
1750239830.7603583,3453
1750239830.7604344,3607
1750239830.7605107,3359
1750239830.7605984,2894
1750239830.7606761,2367
1750239830.7607524,1900
1750239830.7608287,1553
1750239830.7609046,1526
1750239830.7678297,1981
1750239830.7695181,2760
1750239830.770059,3397
1750239830.7701468,3613
1750239830.7702296,3417
1750239830.770654,2981
1750239830.7707186,2463
1750239830.770797,1982
1750239830.7708595,1601
1750239830.770943,1499
1750239830.7710261,1878
1750239830.771109,2639
1750239830.771192,3332
1750239830.7712748,3617
1750239830.7713575,3470
1750239830.7714403,3046
1750239830.7715287,2524
1750239830.7716112,2031
1750239830.7716906,1627
1750239830.7717683,1454
1750239830.7718463,1747
1750239830.7725286,2476
1750239830.7726452,3234
1750239830.7727692,3612
1750239830.7728786,3534
1750239830.7729867,3133
1750239830.7730951,2618
1750239830.773217,2126
1750239830.7733266,1712
1750239830.7734427,1470
1750239830.7735515,1656
1750239830.7736707,2321
1750239830.773779,3122
1750239830.7738872,3586
1750239830.7739952,3573
1750239830.7741213,3192
1750239830.77423,2687
1750239830.7743394,2201
1750239830.7744482,1787
1750239830.774569,1492
1750239830.7747664,1577
1750239830.7964592,2168
1750239830.796786,2996
1750239830.796915,3547
1750239830.7972286,3603
1750239830.797357,3238
1750239830.7975001,2718
1750239830.797607,2222
1750239830.797708,1823
1750239830.8350027,1521
1750239830.8836389,1522
1750239830.8855355,1987
1750239830.9485724,2752
1750239830.9715402,3351
1750239830.9869058,3530
1750239831.012173,3282
1750239831.0618148,2796
1750239831.0624804,2251
1750239831.0625613,1795
1750239831.062639,1477
1750239831.0627031,1473
1750239831.0627792,1924
1750239831.0628393,2683
1750239831.0629127,3304
1750239831.0629904,3516
1750239831.0630684,3321
1750239831.0631466,2881
1750239831.0632248,2359
1750239831.0633028,1885
1750239831.0633817,1521
1750239831.0634599,1438
1750239831.0635376,1839
1750239831.063616,2628
1750239831.0636938,3352
1750239831.0637717,3651
1750239831.0638492,3489
1750239831.0697749,3036
1750239831.12554,2504
1750239831.1324973,2031
1750239831.133631,1660
1750239831.1347208,1493
1750239831.1370826,1749
1750239831.1371787,2420
1750239831.1372592,3142
1750239831.1373386,3532
1750239831.1374173,3490
1750239831.1374953,3107
1750239831.1375747,2575
1750239831.1376534,2055
1750239831.1383948,1651
1750239831.1384873,1457
1750239831.1385882,1679
1750239831.138664,2318
1750239831.1387246,3056
1750239831.1388035,3494
1750239831.1388814,3519
1750239831.1389608,3188
1750239831.1500494,2673
1750239831.1501966,2127
1750239831.1502771,1683
1750239831.1503563,1433
1750239831.1504345,1589
1750239831.150514,2193
1750239831.150592,2966
1750239831.1506698,3469
1750239831.1507735,3547
1750239831.1508565,3243
1750239831.1509385,2743
1750239831.1510165,2203
1750239831.151094,1750
1750239831.1511726,1456
1750239831.1512513,1531
1750239831.1513286,2083
1750239831.1514063,2895
1750239831.151484,3492
1750239831.1515617,3646
1750239831.151639,3377
1750239831.1517177,2887
1750239831.1517954,2352
1750239831.1548257,1900
1750239831.1750708,1560
1750239831.1751919,1509
1750239831.1822057,1914
1750239831.1823075,2661
1750239831.1824033,3311
1750239831.1941037,3572
1750239831.195547,3401
1750239831.1960151,2952
1750239831.2022257,2405
1750239831.265492,1920
1750239831.2745056,1560
1750239831.2747226,1480
1750239831.2750912,1867
1750239831.2759988,2632
1750239831.2761095,3339
1750239831.307937,3640
1750239831.3169582,3488
1750239831.3170507,3038
1750239831.317142,2492
1750239831.3172271,2008
1750239831.3173096,1633
1750239831.3181329,1475
1750239831.3395402,1744
1750239831.3682323,2426
1750239831.3739367,3149
1750239831.374281,3529
1750239831.3746176,3474
1750239831.3749428,3089
1750239831.3753128,2574
1750239831.37565,2082
1750239831.3759847,1685
1750239831.376321,1469
1750239831.376656,1659
1750239831.3769927,2293
1750239831.377325,3051
1750239831.3776612,3500
1750239831.378001,3501
1750239831.3783374,3132
1750239831.4047124,2609
1750239831.414019,2099
1750239831.4140975,1697
1750239831.4141667,1455
1750239831.4142356,1592
1750239831.414303,2188
1750239831.4143784,2980
1750239831.4144456,3507
1750239831.4145145,3581
1750239831.4145815,3254
1750239831.4146485,2747
1750239831.414716,2229
1750239831.4147825,1804
1750239831.4148495,1507
1750239831.4149175,1543
1750239831.414985,2046
1750239831.4150522,2824
1750239831.415119,3409
1750239831.4151883,3563
1750239831.4152675,3303
1750239831.4153366,2830
1750239831.415405,2310
1750239831.415472,1863
1750239831.4155395,1529
1750239831.4156165,1495
1750239831.4156866,1933
1750239831.4157548,2705
1750239831.4158225,3346
1750239831.41589,3569
1750239831.415958,3367
1750239831.4160268,2917
1750239831.4160929,2393
1750239831.4161613,1925
1750239831.4162283,1561
1750239831.4162943,1464
1750239831.423413,1833
1750239831.4234893,2580
1750239831.4238102,3265
1750239831.4718144,3553
1750239831.4719346,3409
1750239831.4720204,2985
1750239831.472106,2470
1750239831.4721913,1998
1750239831.4722755,1623
1750239831.4723601,1463
1750239831.4724452,1729
1750239831.4725294,2393
1750239831.4726148,3086
1750239831.4727018,3450
1750239831.4727862,3409
1750239831.4728718,3051
1750239831.4729564,2540
1750239831.4730408,2022
1750239831.473125,1607
1750239831.4732091,1419
1750239831.4732935,1680
1750239831.4733777,2371
1750239831.4734623,3123
1750239831.4735465,3522
1750239831.4736307,3487
1750239831.4737155,3133
1750239831.4737995,2654
1750239831.4738836,2160
1750239831.4739676,1727
1750239831.4740522,1445
1750239831.474136,1572
1750239831.4742203,2193
1750239831.4743044,3011
1750239831.4743898,3539
1750239831.4744737,3601
1750239831.4745576,3271
1750239831.4746425,2775
1750239831.4747264,2268
1750239831.4748106,1842
1750239831.4748948,1534
1750239831.474979,1554
1750239831.4750628,2026
1750239831.4751482,2761
1750239831.4752443,3316
1750239831.4753294,3482
1750239831.4754138,3268
1750239831.475888,2827
1750239831.4759936,2299
1750239831.476073,1826
1750239831.476148,1496
1750239831.476224,1515
1750239831.476303,2018
1750239831.4763792,2816
1750239831.4764545,3439
1750239831.4765344,3627
1750239831.4766111,3409
1750239831.4766924,2960
1750239831.4767723,2440
1750239831.4768536,1969
1750239831.4769287,1594
1750239831.4770048,1477
1750239831.4770799,1819
1750239831.4771607,2543
1750239831.4772377,3222
1750239831.4773145,3522
1750239831.4773903,3395
1750239831.4774656,2980
1750239831.4775374,2466
1750239831.4776149,1989
1750239831.4776862,1610
1750239831.4777572,1461
1750239831.47783,1771
1750239831.4779065,2510
1750239831.4779787,3267
1750239831.4780517,3634
1750239831.4781175,3535
1750239831.4781835,3115
1750239831.4782493,2595
1750239831.478316,2109
1750239831.4783819,1707
1750239831.4784484,1477
1750239831.4785144,1666
1750239831.4955287,2312
1750239831.5315332,3076
1750239831.5323737,3515
1750239831.5328534,3509
1750239831.5330017,3157
1750239831.5331452,2666
1750239831.5332875,2160
1750239831.533432,1721
1750239831.5335693,1436
1750239831.5337095,1561
1750239831.5432918,2173
1750239831.5688062,2974
1750239831.6729681,3484
1750239831.691434,3539
1750239831.69151,3218
1750239831.6915812,2733
1750239831.6916537,2220
1750239831.6917217,1777
1750239831.6917932,1463
1750239831.6918747,1513
1750239831.6947424,2052
1750239831.6948075,2856
1750239831.736855,3439
1750239831.736935,3576
1750239831.7370076,3307
1750239831.7371252,2838
1750239831.7371962,2323
1750239831.737268,1870
1750239831.7375658,1520
1750239831.7376366,1483
1750239831.7377174,1943
1750239831.737789,2752
1750239831.7378592,3419
1750239831.737928,3636
1750239831.774764,3399
1750239831.7769225,2918
1750239831.7782369,2392
1750239831.7785594,1941
1750239831.7832441,1580
1750239831.7833252,1459
1750239831.783395,1801
1750239831.7834635,2550
1750239831.7835336,3271
1750239831.7836022,3591
1750239831.7836702,3448
1750239831.7837389,3004
1750239831.7838068,2474
1750239831.7838793,1999
1750239831.7839487,1619
1750239831.784034,1447
1750239831.7841027,1719
1750239831.7841723,2428
1750239831.7842414,3182
1750239831.7843091,3567
1750239831.78438,3487
1750239831.7844486,3075
1750239831.784518,2549
1750239831.7845876,2057
1750239831.7846606,1663
1750239831.7847335,1454
1750239831.784801,1667
1750239831.7848687,2329
1750239831.7849376,3097
1750239831.7850063,3532
1750239831.7850819,3518
1750239831.7851503,3155
1750239831.8020263,2650
1750239831.8022685,2135
1750239831.802344,1695
1750239831.8025,1416
1750239831.8117826,1550
1750239831.833346,2170
1750239831.833484,2977
1750239831.8336039,3491
1750239831.833698,3548
1750239831.8338163,3226
1750239831.8339443,2739
1750239831.885904,2230
1750239831.9065528,1790
1750239831.9070835,1473
1750239831.9071603,1516
1750239831.9072342,2045
1750239831.9073064,2843
1750239831.9073794,3424
1750239831.9074895,3563
1750239831.9075644,3293
1750239831.9077702,2820
1750239831.9078457,2301
1750239831.907923,1844
1750239831.9079952,1498
1750239831.9080682,1468
1750239831.9084222,1927
1750239831.9085093,2716
1750239831.911075,3360
1750239831.9157274,3571
1750239831.9158144,3355
1750239831.9158957,2900
1750239831.9159775,2376
1750239831.9160576,1907
1750239831.9161386,1539
1750239831.9162195,1445
1750239831.9163015,1829
1750239831.9163823,2595
1750239831.916763,3293
1750239831.9168458,3582
1750239831.916926,3434
1750239831.917006,3010
1750239831.9170845,2493
1750239831.917164,2007
1750239831.9172447,1600
1750239831.9173253,1424
1750239831.9174056,1728
1750239831.9174845,2483
1750239831.917564,3261
1750239831.9176428,3633
1750239831.917724,3521
1750239831.9177902,3088
1750239831.9178581,2571
1750239831.9179256,2099
1750239831.917993,1702
1750239831.9180624,1465
1750239831.9181428,1653
1750239831.9182177,2330
1750239831.918292,3143
1750239831.9183667,3612
1750239831.9184413,3585
1750239831.918516,3182
1750239831.9200315,2657
1750239831.9224443,2163
1750239831.9233022,1750
1750239831.9238005,1462
1750239831.9243417,1558
1750239831.924423,2154
1750239831.9245205,2977
1750239831.9245996,3527
1750239831.9246776,3596
1750239831.9247549,3252
1750239831.9248328,2740
1750239831.9249103,2229
1750239831.9250014,1805
1750239831.9250793,1501
1750239831.9251573,1548
1750239831.9436023,2090
1750239831.9514146,2915
1750239831.951493,3521
1750239831.9515676,3652
1750239831.951641,3349
1750239831.9517145,2845
1750239831.9517877,2321
1750239831.9518607,1880
1750239831.9519458,1536
1750239831.9520187,1494
1750239831.9520915,1950
1750239831.9521642,2766
1750239831.9522371,3448
1750239831.9523091,3671
1750239831.9523816,3430
1750239831.9524534,2943
1750239831.9525259,2416
1750239831.952598,1959
1750239831.9526706,1589
1750239831.9527435,1472
1750239831.9528155,1840
1750239831.9528878,2621
1750239831.95296,3350
1750239831.9530323,3649
1750239831.9531069,3475
1750239831.9531794,3020
1750239831.9532514,2497
1750239831.9533236,2030
1750239831.9533956,1643
1750239831.9534676,1466
1750239831.9535396,1747
1750239831.953612,2469
1750239831.9536836,3220
1750239831.9537559,3583
1750239831.953828,3483
1750239831.9539003,3069
1750239831.9605098,2556
1750239831.9605916,2072
1750239831.9606645,1663
1750239831.960738,1435
1750239831.960811,1652
1750239831.9608834,2349
1750239831.9609666,3158
1750239831.9610405,3605
1750239831.961113,3559
1750239831.961186,3149
1750239831.9612584,2625
1750239831.961331,2133
1750239831.9614038,1726
1750239831.9614763,1450
1750239831.9615483,1558
1750239831.961621,2159
1750239831.9616945,2978
1750239831.9617677,3520
1750239831.9618404,3583
1750239831.9619274,3230
1750239831.9620006,2710
1750239831.9620752,2197
1750239831.9621484,1781
1750239831.962221,1486
1750239831.962294,1533
1750239831.9623666,2060
1750239831.96244,2862
1750239831.962513,3454
1750239831.9625857,3591
1750239831.9626577,3302
1750239831.9627304,2804
1750239831.9628036,2274
1750239831.96288,1821
1750239831.9629626,1482
1750239831.963035,1458
1750239831.9631085,1923
1750239831.9631827,2726
1750239831.9632564,3385
1750239831.9633296,3604
1750239831.9634018,3377
1750239831.9634745,2899
1750239831.963547,2359
1750239831.9636192,1889
1750239831.9636922,1530
1750239831.9637647,1451
1750239832.027117,1844
1750239832.0360508,2610
1750239832.0361388,3299
1750239832.0377614,3577
1750239832.0378497,3416
1750239832.037932,2982
1750239832.0542712,2456
1750239832.0544994,1968
1750239832.05463,1568
1750239832.054756,1403
1750239832.0548756,1710
1750239832.0550008,2453
1750239832.093074,3210
1750239832.1340945,3576
1750239832.1936498,3476
1750239832.202037,3055
1750239832.2077374,2530
1750239832.2080827,2039
1750239832.2084193,1636
1750239832.20888,1416
1750239832.2455952,1628
1750239832.2919407,2307
1750239832.2921317,3099
1750239832.292223,3549
1750239832.2922957,3525
1750239832.2923682,3132
1750239832.292854,2610
1750239832.3200867,2114
1750239832.3202393,1710
1750239832.3203464,1451
1750239832.3208134,1577
1750239832.321044,2180
1750239832.321443,2982
1750239832.3215537,3510
1750239832.32229,3576
1750239832.3224008,3237
1750239832.3225062,2721
1750239832.3226128,2194
1750239832.3229015,1760
1750239832.323015,1469
1750239832.3231235,1539
1750239832.3232286,2083
1750239832.3233354,2874
1750239832.3234417,3443
1750239832.3236322,3571
1750239832.3237424,3294
1750239832.3238492,2812
1750239832.3239546,2280
1750239832.3240588,1818
1750239832.3241637,1484
1750239832.3242688,1483
1750239832.324373,1964
1750239832.324477,2754
1750239832.3245811,3379
1750239832.3246968,3575
1750239832.3248005,3356
1750239832.3249047,2900
1750239832.32501,2369
1750239832.3251138,1888
1750239832.325234,1515
1750239832.3253522,1432
1750239832.325456,1834
1750239832.3287313,2609
1750239832.328871,3300
1750239832.3308847,3577
1750239832.330995,3412
1750239832.3327417,2973
1750239832.3328679,2445
1750239832.3329735,1962
1750239832.3330784,1574
1750239832.3331828,1421
1750239832.333288,1730
1750239832.3333924,2464
1750239832.333496,3207
1750239832.3336,3564
1750239832.3337042,3463
1750239832.3338077,3046
1750239832.3339126,2525
1750239832.334018,2043
1750239832.3341222,1646
1750239832.3342261,1430
1750239832.3343308,1643
1750239832.334435,2319
1750239832.3345509,3104
1750239832.3347313,3548
1750239832.3347948,3518
1750239832.334861,3126
1750239832.3349366,2606
1750239832.3350115,2111
1750239832.335087,1706
1750239832.335162,1447
1750239832.3352497,1576
1750239832.33534,2185
1750239832.3354158,2988
1750239832.3354914,3509
1750239832.3355665,3562
1750239832.3356442,3216
1750239832.3357224,2707
1750239832.3358002,2196
1750239832.3358777,1772
1750239832.3359554,1474
1750239832.3360336,1530
1750239832.336112,2070
1750239832.33619,2876
1750239832.3362675,3461
1750239832.3363454,3590
1750239832.3364239,3298
1750239832.336509,2803
1750239832.3365865,2280
1750239832.3366647,1841
1750239832.3367443,1519
1750239832.336822,1511
1750239832.3369,1979
1750239832.3369784,2763
1750239832.3370607,3389
1750239832.3371387,3579
1750239832.3372178,3347
1750239832.337296,2890
1750239832.337375,2377
1750239832.337453,1919
1750239832.3375316,1556
1750239832.3376093,1481
1750239832.3376875,1914
1750239832.337766,2743
1750239832.3378444,3471
1750239832.337923,3731
1750239832.338001,3512
1750239832.338079,3029
1750239832.3381567,2500
1750239832.3382351,2037
1750239832.3383129,1641
1750239832.338391,1445
1750239832.3384724,1707
1750239832.3385978,2427
1750239832.3386705,3189
1750239832.3387337,3570
1750239832.3387985,3477
1750239832.338862,3056
1750239832.3389397,2534
1750239832.3390179,2056
1750239832.3390956,1665
1750239832.339173,1450
1750239832.339251,1656
1750239832.3393288,2319
1750239832.3394065,3090
1750239832.339485,3526
1750239832.3395634,3497
1750239832.339641,3104
1750239832.339719,2576
1750239832.339797,2082
1750239832.3398747,1696
1750239832.3399527,1466
1750239832.3400307,1608
1750239832.3401086,2193
1750239832.3401866,2951
1750239832.3402648,3442
1750239832.3403423,3500
1750239832.3404248,3175
1750239832.3405023,2672
1750239832.3405797,2147
1750239832.3406584,1708
1750239832.3407362,1420
1750239832.3641853,1517
1750239832.3869622,2113
1750239832.3870878,2957
1750239832.387164,3542
1750239832.3872387,3637
1750239832.4063332,3306
1750239832.4225311,2800
1750239832.4230795,2298
1750239832.4231524,1880
1750239832.506492,1550
1750239832.5343761,1510
1750239832.5520408,1951
1750239832.5521288,2736
1750239832.5522096,3387
1750239832.5522897,3605
1750239832.5523696,3381
1750239832.552448,2914
1750239832.5525272,2386
1750239832.552607,1915
1750239832.5752418,1545
1750239832.5833113,1459
1750239832.5834997,1858
1750239832.583592,2630
1750239832.5841289,3311
1750239832.584208,3569
1750239832.5842824,3393
1750239832.5843613,2957
1750239832.5844321,2439
1750239832.5845013,1957
1750239832.5958974,1563
1750239832.5959914,1413
1750239832.5960672,1738
1750239832.5961373,2486
1750239832.5962079,3226
1750239832.5968919,3571
1750239832.5969694,3463
1750239832.597043,3049
1750239832.5971158,2531
1750239832.597188,2041
1750239832.5972602,1640
1750239832.5973325,1437
1750239832.5974052,1670
1750239832.597477,2349
1750239832.59755,3112
1750239832.5976205,3533
1750239832.597693,3508
1750239832.5977654,3136
1750239832.597838,2624
1750239832.5979097,2115
1750239832.5979865,1693
1750239832.5981178,1442
1750239832.598191,1601
1750239832.5982633,2224
1750239832.598335,3007
1750239832.5984056,3492
1750239832.6034205,3532
1750239832.6034992,3198
1750239832.6051042,2701
1750239832.615436,2183
1750239832.615518,1744
1750239832.6200843,1446
1750239832.6204734,1525
1750239832.6205475,2087
1750239832.6206207,2891
1750239832.6206932,3455
1750239832.620765,3571
1750239832.6220994,3281
1750239832.6805081,2794
1750239832.7027247,2272
1750239832.768579,1824
1750239832.7686615,1493
1750239832.768736,1488
1750239832.768842,1967
1750239832.7689164,2760
1750239832.7689903,3386
1750239832.7690625,3575
1750239832.7691355,3336
1750239832.769208,2869
1750239832.7692814,2350
1750239832.7693548,1890
1750239832.7694283,1522
1750239832.7694995,1436
1750239832.7695725,1851
1750239832.769645,2666
1750239832.769718,3395
1750239832.7697923,3671
1750239832.769865,3463
1750239832.7699378,2983
1750239832.7700105,2456
1750239832.7700827,2003
1750239832.7701554,1630
1750239832.770228,1464
1750239832.7702906,1762
1750239832.770408,2515
1750239832.7704806,3295
1750239832.7705536,3672
1750239832.77062,3549
1750239832.770682,3093
1750239832.7707517,2554
1750239832.772198,2077
1750239832.7722733,1693
1750239832.7723475,1484
1750239832.772421,1702
1750239832.772494,2389
1750239832.816727,3189
1750239832.844051,3643
1750239832.943626,3613
1750239832.9765656,3209
1750239832.9766474,2667
1750239832.9781132,2153
1750239832.9782288,1733
1750239832.9783354,1476
1750239832.978441,1626
1750239832.9800768,2258
1750239832.9801893,3070
1750239832.9834034,3579
1750239832.9835126,3611
1750239832.9836192,3250
1750239832.98374,2737
1750239832.9838471,2226
1750239832.983953,1793
1750239832.9840586,1482
1750239832.9841776,1541
1750239832.984284,2106
1750239832.9843905,2939
1750239832.9844952,3526
1750239832.9845848,3629
1750239832.9894109,3302
1750239832.989524,2794
1750239832.9896297,2282
1750239832.9898992,1853
1750239832.9900067,1525
1750239832.9901123,1510
1750239833.0388088,1985
1750239833.102651,2786
1750239833.114736,3418
1750239833.1148334,3599
1750239833.1149786,3346
1750239833.1150668,2876
1750239833.1151466,2360
1750239833.11546,1899
1750239833.115594,1523
1750239833.1156702,1436
1750239833.1159368,1860
1750239833.1160173,2681
1750239833.1160967,3399
1750239833.1161764,3653
1750239833.1162553,3434
1750239833.1219923,2960
1750239833.1220884,2443
1750239833.1221735,1989
1750239833.1222584,1608
1750239833.1234102,1444
1750239833.1235175,1749
1750239833.123603,2497
1750239833.1239338,3253
1750239833.1240177,3602
1750239833.1241012,3472
1750239833.1241975,3031
1750239833.1242802,2506
1750239833.1243634,2029
1750239833.1244478,1635
1750239833.1245303,1428
1750239833.1251347,1662
1750239833.1252542,2360
1750239833.1279495,3147
1750239833.128143,3574
1750239833.1282508,3522
1750239833.128357,3117
1750239833.1290438,2591
1750239833.1291575,2090
1750239833.1292627,1680
1750239833.1630187,1438
1750239833.1724234,1614
1750239833.1725094,2274
1750239833.262255,3097
1750239833.2626252,3601
1750239833.2629576,3620
1750239833.2632966,3247
1750239833.2636306,2723
1750239833.2639651,2202
1750239833.2642982,1765
1750239833.2646248,1464
1750239833.264956,1540
1750239833.265312,2105
1750239833.2656436,2912
1750239833.2659788,3470
1750239833.2663102,3571
1750239833.29123,3268
1750239833.3401296,2780
1750239833.3404775,2258
1750239833.3509946,1800
1750239833.380086,1457
1750239833.406931,1459
1750239833.4120796,1967
1750239833.4122317,2787
1750239833.4123695,3420
1750239833.412505,3593
1750239833.4126418,3332
1750239833.4127774,2850
1750239833.4129121,2323
1750239833.4130468,1863
1750239833.4131832,1505
1750239833.4133198,1435
1750239833.4134543,1852
1750239833.4135883,2643
1750239833.4137232,3335
1750239833.4218907,3598
1750239833.4220092,3408
1750239833.4221165,2948
1750239833.4222224,2415
1750239833.4223275,1942
1750239833.4256263,1568
1750239833.4257526,1440
1750239833.4276073,1777
1750239833.4279864,2522
1750239833.42826,3246
1750239833.429096,3574
1750239833.4293926,3451
1750239833.4296732,3030
1750239833.4299307,2510
1750239833.4304957,2024
1750239833.4309967,1628
1750239833.4319403,1438
1750239833.4322433,1695
1750239833.432507,2394
1750239833.4327683,3154
1750239833.4330275,3554
1750239833.4336524,3502
1750239833.433949,3116
1750239833.4349318,2608
1750239833.43522,2107
1750239833.4354818,1687
1750239833.4357553,1441
1750239833.436022,1623
1750239833.4367833,2284
1750239833.4371023,3093
1750239833.4373767,3578
1750239833.4384205,3586
1750239833.4390633,3214
1750239833.4393423,2695
1750239833.4396145,2189
1750239833.4401867,1771
1750239833.440538,1487
1750239833.440647,1568
1750239833.440892,2125
1750239833.4412625,2917
1750239833.4415944,3466
1750239833.4417882,3566
1750239833.4548252,3263
1750239833.457562,2774
1750239833.4576402,2257
1750239833.4577131,1813
1750239833.4577854,1484
1750239833.4578574,1497
1750239833.457929,2011
1750239833.4580007,2835
1750239833.4580724,3462
1750239833.4581442,3615
1750239833.4582157,3326
1750239833.458288,2829
1750239833.4583592,2315
1750239833.458431,1884
1750239833.4585032,1541
1750239833.4585874,1469
1750239833.4586492,1878
1750239833.4587154,2670
1750239833.4587867,3373
1750239833.4588583,3638
1750239833.4589298,3434
1750239833.459001,2962
1750239833.459072,2435
1750239833.4591444,1980
1750239833.459216,1612
1750239833.4592874,1475
1750239833.4593587,1805
1750239833.45943,2564
1750239833.4595008,3310
1750239833.459572,3634
1750239833.4596431,3476
1750239833.459715,3020
1750239833.459786,2502
1750239833.4598572,2051
1750239833.4599285,1679
1750239833.4600003,1484
1750239833.4600708,1727
1750239833.4601426,2438
1750239833.4602137,3228
1750239833.460285,3638
1750239833.460356,3548
1750239833.4604273,3110
1750239833.4604983,2578
1750239833.4605696,2101
1750239833.4606404,1711
1750239833.4607122,1469
1750239833.4607832,1630
1750239833.4608545,2271
1750239833.460926,3075
1750239833.4609973,3558
1750239833.4610686,3552
1750239833.4611478,3164
1750239833.4612193,2647
1750239833.4612908,2155
1750239833.4613621,1752
1750239833.4614336,1478
1750239833.4615047,1577
1750239833.4615762,2168
1750239833.461648,2993
1750239833.46172,3551
1750239833.4617946,3621
1750239833.4637535,3273
1750239833.5474308,2759
1750239833.583112,2250
1750239833.5832055,1834
1750239833.5832903,1521
1750239833.5833635,1521
1750239833.5834422,1994
1750239833.5835216,2770
1750239833.5836015,3372
1750239833.583681,3535
1750239833.5837607,3272
1750239833.5838394,2789
1750239833.5839186,2265
1750239833.583997,1822
1750239833.5840747,1497
1750239833.584152,1474
1750239833.5842304,1933
1750239833.5843084,2737
1750239833.5843863,3412
1750239833.5844638,3638
1750239833.5845413,3411
1750239833.5846186,2931
1750239833.5846958,2394
1750239833.5847733,1927
1750239833.6004896,1563
