1750241508.9355195,2333
1750241508.9975424,3025
1750241508.9988487,3406
1750241508.9998097,3385
1750241509.0009556,3080
1750241509.0021808,2683
1750241509.0040035,2290
1750241509.0053866,1942
1750241509.0070093,1670
1750241509.0083954,1713
1750241509.0094476,2202
1750241509.0103347,2901
1750241509.0118077,3354
1750241509.0128462,3405
1750241509.0139265,3131
1750241509.015242,2727
1750241509.0163715,2316
1750241509.018122,1966
1750241509.019039,1685
1750241509.0198076,1660
1750241509.0207262,2059
1750241509.0215101,2729
1750241509.0228639,3237
1750241509.0236518,3370
1750241509.0244882,3165
1750241509.0257115,2790
1750241509.0267663,2379
1750241509.02812,2022
1750241509.0289702,1726
1750241509.0302541,1634
1750241509.0309823,1947
1750241509.0316641,2585
1750241509.0343142,3145
1750241509.0351508,3351
1750241509.0360796,3204
1750241509.0367217,2843
1750241509.0374842,2423
1750241509.0382516,2057
1750241509.0390978,1761
1750241509.0395923,1632
1750241509.0400362,1883
1750241509.0404618,2499
1750241509.0411158,3111
1750241509.0416057,3387
1750241509.0421386,3289
1750241509.0427275,2940
1750241509.0434828,2515
1750241509.0439398,2131
1750241509.044494,1815
1750241509.0450945,1629
1750241509.0455532,1802
1750241509.045978,2383
1750241509.0467486,3052
1750241509.0473726,3415
1750241509.047969,3378
1750241509.0487568,3048
1750241509.0494044,2623
1750241509.0500836,2232
1750241509.050735,1916
1750241509.0514305,1687
1750241509.0520742,1752
1750241509.0526032,2218
1750241509.0532358,2861
1750241509.054165,3282
1750241509.0547686,3341
1750241509.055432,3081
1750241509.0560598,2666
1750241509.056675,2236
1750241509.0573435,1890
1750241509.0579553,1656
1750241509.0586154,1708
1750241509.0592103,2153
1750241509.0598373,2807
1750241509.0605407,3268
1750241509.0611098,3374
1750241509.0617635,3157
1750241509.0623682,2760
1750241509.0631967,2312
1750241509.0641744,1934
1750241509.0649502,1662
1750241509.0660903,1645
1750241509.0668507,2024
1750241509.0718832,2671
1750241509.0726664,3192
1750241509.0734801,3369
1750241509.0748994,3209
1750241509.0772035,2837
1750241509.078117,2391
1750241509.078894,1999
1750241509.0797396,1706
1750241509.0812068,1629
1750241509.0813851,1935
1750241509.081569,2553
1750241509.0819032,3116
1750241509.0821354,3360
1750241509.0823605,3267
1750241509.0825896,2934
1750241509.082801,2494
1750241509.0830178,2081
1750241509.0832298,1759
1750241509.0834646,1628
1750241509.0836778,1871
1750241509.083908,2460
1750241509.0841465,3052
1750241509.0843549,3334
1750241509.0852454,3278
1750241509.086068,2974
1750241509.0862846,2559
1750241509.0864873,2139
1750241509.0866773,1787
1750241509.0867643,1585
1750241509.0869555,1758
1750241509.0870984,2339
1750241509.0871828,3019
1750241509.087729,3399
1750241509.0886219,3392
1750241509.0887566,3089
1750241509.0890899,2669
1750241509.0896206,2253
1750241509.089735,1908
1750241509.0898502,1667
1750241509.0901783,1731
1750241509.0902946,2200
1750241509.0917816,2851
1750241509.0933921,3279
1750241509.093555,3353
1750241509.0936692,3124
1750241509.093782,2747
1750241509.093908,2330
1750241509.09402,1952
1750241509.0941322,1660
1750241509.0942454,1669
1750241509.0943894,2131
1750241509.0945017,2845
1750241509.0946114,3345
1750241509.0955572,3434
1750241509.1017919,3197
1750241509.1089256,2832
1750241509.1098757,2447
1750241509.1101208,2074
1750241509.1102908,1718
1750241509.1104712,1615
1750241509.1106703,2032
1750241509.1108398,2840
1750241509.1110177,3487
1750241509.111198,3626
1750241509.111409,3347
1750241509.1115777,2949
1750241509.1117642,2610
1750241509.111949,2298
1750241509.112131,1904
1750241509.112311,1614
1750241509.1124809,1840
1750241509.1126628,2625
1750241509.112832,3431
1750241509.1130006,3729
1750241509.1131783,3491
1750241509.1133482,3038
1750241509.1135519,2673
1750241509.1137204,2415
1750241509.1140714,2100
1750241509.1150637,1752
1750241509.1183975,1752
1750241509.120594,2290
1750241509.1223195,3019
1750241509.1251981,3419
1750241509.1267993,3349
1750241509.1283822,2976
1750241509.129436,2570
1750241509.1302485,2245
1750241509.1319985,1959
1750241509.1324415,1708
1750241509.132902,1762
1750241509.1333237,2274
1750241509.1335337,2972
1750241509.133799,3376
1750241509.134102,3346
1750241509.1343236,3010
1750241509.1344528,2604
1750241509.13458,2245
1750241509.1346881,1941
1750241509.1347976,1679
1750241509.1349077,1693
1750241509.135022,2165
1750241509.1353776,2890
1750241509.1358657,3380
1750241509.1362302,3423
1750241509.1365545,3118
1750241509.1369023,2707
1750241509.137012,2339
1750241509.1371248,2040
1750241509.1373858,1757
1750241509.1375444,1671
1750241509.1376529,2013
1750241509.1377664,2688
1750241509.1378758,3238
1750241509.1379876,3386
1750241509.1380951,3161
1750241509.1382942,2769
1750241509.1388094,2376
1750241509.138919,2045
1750241509.139027,1740
1750241509.1391463,1601
1750241509.1392598,1883
1750241509.139374,2553
1750241509.1394875,3174
1750241509.139601,3397
1750241509.1397107,3218
1750241509.1398191,2830
1750241509.139932,2427
1750241509.1402202,2092
1750241509.1405091,1789
1750241509.1406808,1606
1750241509.140942,1813
1750241509.1410568,2446
1750241509.141265,3115
1750241509.1413739,3417
1750241509.1415153,3300
1750241509.142565,2937
1750241509.1429377,2541
1750241509.1432405,2194
1750241509.1435492,1871
1750241509.143824,1622
1750241509.1441138,1739
1750241509.144431,2327
1750241509.1446922,3052
1750241509.1450331,3440
1750241509.145395,3374
1750241509.1456902,3011
1750241509.145999,2603
1750241509.146354,2254
1750241509.147277,1948
1750241509.1477435,1675
1750241509.1478503,1693
1750241509.1479564,2173
1750241509.1482844,2882
1750241509.1485858,3343
1750241509.1486928,3378
1750241509.1487987,3080
1750241509.1489136,2672
1750241509.149029,2284
1750241509.1491435,1952
1750241509.149299,1672
1750241509.149417,1658
1750241509.1495342,2091
1750241509.1496663,2790
1750241509.1497817,3288
1750241509.149901,3371
1750241509.1500165,3118
1750241509.1501563,2729
1750241509.1502717,2332
1750241509.1503863,1985
1750241509.150898,1683
1750241509.1520102,1608
1750241509.1521978,1974
1750241509.1522784,2667
1750241509.1525204,3230
1750241509.152688,3390
1750241509.1528935,3189
1750241509.1530092,2818
1750241509.1531243,2420
1750241509.153309,2059
1750241509.153426,1723
1750241509.1535432,1557
1750241509.153672,1824
1750241509.1537874,2498
1750241509.1539063,3145
1750241509.1540234,3400
1750241509.1541512,3245
1750241509.1542683,2868
1750241509.1543844,2467
1750241509.1546125,2124
1750241509.154728,1813
1750241509.1548421,1602
1750241509.1549714,1763
1750241509.1550958,2361
1750241509.1552134,3042
1750241509.159249,3384
1750241509.1593626,3309
1750241509.1594758,2958
1750241509.159589,2547
1750241509.1597016,2184
1750241509.1598148,1872
1750241509.159928,1635
1750241509.1600392,1718
1750241509.1601517,2225
1750241509.1602645,2886
1750241509.1604006,3276
1750241509.160513,3280
1750241509.1606238,2994
1750241509.160735,2604
1750241509.160847,2216
1750241509.1609578,1879
1750241509.161069,1622
1750241509.1611838,1670
1750241509.1612947,2154
1750241509.1614053,2850
1750241509.1615162,3309
1750241509.1616275,3367
1750241509.161748,3103
1750241509.1618621,2706
1750241509.1619747,2302
1750241509.162088,1958
1750241509.1622016,1675
1750241509.1623142,1639
1750241509.1626782,2031
1750241509.1627896,2714
1750241509.1629014,3242
1750241509.1630137,3380
1750241509.1631265,3166
1750241509.1632373,2784
1750241509.16335,2381
1750241509.163461,2033
1750241509.1635716,1729
1750241509.1636846,1619
1750241509.1637955,1939
1750241509.1639066,2627
1750241509.164019,3242
1750241509.16413,3453
1750241509.1642406,3261
1750241509.16992,2862
1750241509.1700344,2450
1750241509.1701455,2113
1750241509.173503,1813
1750241509.1736188,1632
1750241509.1737316,1831
1750241509.1738467,2445
1750241509.1739602,3103
1750241509.1740718,3415
1750241509.17687,3319
1750241509.1773512,2957
1750241509.1777697,2534
1750241509.1782026,2157
1750241509.1797266,1830
1750241509.1828706,1610
1750241509.1830423,1758
1750241509.1930518,2351
1750241509.1941347,3058
1750241509.194619,3439
1750241509.195058,3386
1750241509.1955118,3030
1750241509.1959054,2600
1750241509.1966937,2223
1750241509.2025988,1910
1750241509.2044072,1662
1750241509.2055147,1712
1750241509.2065513,2198
1750241509.20754,2889
1750241509.208736,3340
1750241509.2099478,3388
1750241509.2108507,3105
1750241509.2116237,2697
1750241509.2123592,2294
1750241509.2136412,1948
1750241509.2716115,1665
1750241509.3263638,1659
1750241509.3269107,2105
1750241509.3278012,2820
1750241509.3285904,3336
1750241509.3293622,3431
1750241509.4237862,3168
1750241509.4548287,2754
1750241509.4920654,2343
1750241509.5240717,2011
1750241509.5553222,1735
1750241509.6025198,1664
1750241509.6726942,1986
1750241509.7483072,2610
1750241509.7547302,3131
1750241509.7714167,3305
1750241509.853382,3145
1750241509.8856401,2789
1750241509.9943192,2369
1750241510.0324175,1988
1750241510.0634162,1683
1750241510.0951867,1587
1750241510.0953596,1895
1750241510.0971704,2540
1750241510.1362689,3129
1750241510.163981,3367
1750241510.1908567,3249
1750241510.223384,2892
1750241510.2410376,2448
1750241510.296648,2045
1750241510.298451,1742
1750241510.2988741,1618
1750241510.3332002,1848
1750241510.384953,2411
1750241510.487701,2986
1750241510.5672736,3272
1750241510.719012,3241
1750241510.7963645,2959
1750241510.9248044,2543
1750241510.970625,2110
1750241511.0154216,1756
1750241511.0793214,1567
1750241511.095521,1740
1750241511.1267853,2295
1750241511.1577392,2941
1750241511.1685665,3313
1750241511.1893313,3333
1750241511.2050505,3064
1750241511.215528,2648
1750241511.2416744,2209
1750241511.3093374,1853
1750241511.414646,1626
1750241511.480244,1708
1750241511.5170279,2177
1750241511.5428753,2823
1750241511.5551045,3260
1750241511.5689962,3356
1750241511.5926063,3139
1750241511.6365845,2746
1750241511.6605406,2303
1750241511.728674,1932
1750241511.7308087,1671
1750241511.7499602,1680
1750241511.8020625,2080
1750241511.8220375,2719
1750241511.8682442,3206
1750241511.8743865,3358
1750241511.8770628,3188
1750241511.8911011,2815
1750241511.8912346,2361
1750241511.8913121,1960
1750241511.891388,1671
1750241511.8914633,1634
1750241511.8915386,1991
1750241511.891616,2627
1750241511.8916917,3156
1750241511.89179,3355
1750241511.891869,3236
1750241511.9449608,2899
1750241511.9761395,2455
1750241511.976245,2031
1750241511.977,1707
1750241511.9770725,1608
1750241511.9771419,1903
1750241511.9772089,2516
1750241511.977277,3081
1750241511.977344,3329
1750241511.977414,3258
1750241511.9774942,2953
1750241511.9775605,2526
1750241511.9784186,2090
1750241512.0691912,1738
1750241512.135299,1575
1750241512.1387663,1794
1750241512.1388433,2379
1750241512.138914,3004
1750241512.1389852,3334
1750241512.1390533,3323
1750241512.1391222,3040
1750241512.1391928,2617
1750241512.139262,2174
1750241512.139339,1816
1750241512.1394093,1610
1750241512.1394773,1745
1750241512.1395445,2258
1750241512.1396117,2891
1750241512.139678,3279
1750241512.1397443,3331
1750241512.1398103,3092
1750241512.1398785,2692
1750241512.1399462,2246
1750241512.1400123,1866
1750241512.1400812,1608
1750241512.1401494,1660
1750241512.1402156,2118
1750241512.140283,2783
1750241512.1403518,3250
1750241512.1404266,3363
1750241512.140499,3154
1750241512.140568,2763
1750241512.1406355,2317
1750241512.1407053,1939
1750241512.1407719,1669
1750241512.1408384,1657
1750241512.140906,2038
1750241512.1409729,2679
1750241512.1410398,3191
1750241512.1411095,3369
1750241512.1411774,3224
1750241512.141245,2868
1750241512.141312,2424
1750241512.1413789,2021
1750241512.1414397,1718
1750241512.1416495,1643
1750241512.1417403,1958
1750241512.141811,2572
1750241512.1418786,3114
1750241512.1419485,3336
1750241512.1420138,3237
1750241512.1420748,2911
1750241512.142137,2476
1750241512.1422029,2056
1750241512.142272,1730
1750241512.1423378,1608
1750241512.142404,1871
1750241512.1424727,2469
1750241512.1425393,3055
1750241512.1426122,3332
1750241512.1426783,3283
1750241512.1427467,2987
1750241512.1428156,2563
1750241512.1428828,2130
1750241512.1429498,1781
1750241512.1430187,1604
1750241512.1430855,1791
1750241512.1431546,2346
1750241512.1432207,2968
1750241512.1432896,3308
1750241512.1433556,3313
1750241512.143424,3051
1750241512.143494,2653
1750241512.143562,2225
1750241512.143629,1859
1750241512.1436975,1621
1750241512.1437652,1717
1750241512.143832,2226
1750241512.143899,2903
1750241512.1439664,3338
1750241512.1440356,3403
1750241512.1441019,3150
1750241512.1441712,2742
1750241512.144238,2310
1750241512.1443098,1952
1750241512.1443794,1691
1750241512.1444476,1693
1750241512.1445167,2090
1750241512.144584,2735
1750241512.1446505,3228
1750241512.144718,3383
1750241512.1447914,3209
1750241512.1448584,2834
1750241512.1449277,2388
1750241512.1449945,1998
1750241512.1738107,1706
1750241512.1738932,1660
1750241512.173968,2017
1750241512.1740432,2667
1750241512.174105,3213
1750241512.174171,3408
1750241512.174247,3258
1750241512.1745183,2889
1750241512.1745896,2444
1750241512.1746624,2048
1750241512.1747355,1745
1750241512.1748075,1637
1750241512.1748796,1902
1750241512.200232,2501
1750241512.200313,3083
1750241512.2003882,3361
1750241512.200491,3301
1750241512.2006154,2981
1750241512.2263544,2533
1750241512.2278123,2101
1750241512.227899,1771
1750241512.2285528,1632
1750241512.2574303,1857
1750241512.2676597,2421
1750241512.2677875,3008
1750241512.2788575,3310
1750241512.2792425,3290
1750241512.2793846,3013
1750241512.2801676,2596
1750241512.2805893,2154
1750241512.2807255,1791
1750241512.2812185,1595
1750241512.2816844,1760
1750241512.2817879,2314
1750241512.2818675,2976
1750241512.2819457,3369
1750241512.2820244,3407
1750241512.282104,3145
1750241512.2823648,2727
1750241512.2824497,2272
1750241512.2825315,1896
1750241512.2826135,1657
1750241512.2826948,1731
1750241512.282776,2192
1750241512.2828574,2824
1750241512.2829406,3243
1750241512.283022,3331
1750241512.2831035,3131
1750241512.28996,2763
1750241512.2900436,2321
1750241512.2902367,1921
1750241512.2903166,1631
1750241512.2903955,1628
1750241512.2904735,2039
1750241512.290552,2698
1750241512.2906294,3202
1750241512.2907069,3362
1750241512.2907846,3204
1750241512.290862,2839
1750241512.2909396,2385
1750241512.2910175,1977
1750241512.2910953,1678
1750241512.2911723,1619
1750241512.2912498,1949
1750241512.2913275,2575
1750241512.2914052,3125
1750241512.2914844,3355
1750241512.291562,3257
1750241512.2916393,2920
1750241512.2917295,2477
1750241512.2918074,2066
1750241512.2918851,1754
1750241512.2919629,1635
1750241512.292047,1892
1750241512.2921252,2493
1750241512.292203,3099
1750241512.2922814,3397
1750241512.2923596,3340
1750241512.2924378,3013
1750241512.2925158,2573
1750241512.2925935,2153
1750241512.2926712,1823
1750241512.2927492,1641
1750241512.292827,1799
1750241512.2929046,2329
1750241512.2929828,2951
1750241512.2930608,3316
1750241512.2931385,3340
1750241512.293216,3071
1750241512.2932942,2648
1750241512.2933722,2202
1750241512.2934499,1843
1750241512.3031569,1635
1750241512.303241,1759
1750241512.3033197,2257
1750241512.303398,2883
1750241512.303477,3271
1750241512.303555,3328
1750241512.3036337,3105
1750241512.3037117,2717
1750241512.3037896,2267
1750241512.3038762,1879
1750241512.3039536,1622
1750241512.304031,1677
1750241512.3041081,2129
1750241512.3041854,2777
1750241512.3042626,3231
1750241512.30434,3350
1750241512.3044174,3168
1750241512.3044949,2797
1750241512.3045726,2345
1750241512.3046503,1945
1750241512.3047273,1662
1750241512.3048048,1645
1750241512.3048828,2019
1750241512.3049603,2651
1750241512.3050485,3158
1750241512.3051271,3341
1750241512.3052056,3211
1750241512.3052833,2863
1750241512.3053613,2417
1750241512.3054392,2005
1750241512.3852277,1697
1750241512.3952177,1611
1750241512.3956172,1908
1750241512.3979788,2520
1750241512.398303,3088
1750241512.4056547,3347
1750241512.4060102,3274
1750241512.4063373,2953
1750241512.4066725,2513
1750241512.4070082,2091
1750241512.4073427,1764
1750241512.4076774,1622
1750241512.4303188,1846
1750241512.4304328,2418
1750241512.4305582,3016
1750241512.43182,3323
1750241512.4319685,3301
1750241512.4320726,3022
1750241512.4330242,2614
1750241512.4331172,2185
1750241512.4331915,1822
1750241512.4332638,1612
1750241512.4333363,1774
1750241512.4334083,2342
1750241512.4334798,3010
1750241512.447649,3383
1750241512.4480388,3383
1750241512.4481525,3102
1750241512.4503105,2702
1750241512.4503956,2290
1750241512.4504757,1937
1750241512.4505563,1680
1750241512.450635,1720
1750241512.491494,2164
1750241512.4927075,2806
1750241512.492868,3245
1750241512.4933772,3338
1750241512.5340562,3122
1750241512.5341434,2732
1750241512.5342185,2288
1750241512.5342925,1910
1750241512.534366,1641
1750241512.5344403,1648
1750241512.5345123,2056
1750241512.5345888,2710
1750241512.5346646,3210
1750241512.5347407,3364
1750241512.5348165,3188
1750241512.5348918,2806
1750241512.534968,2355
1750241512.5350525,1971
1750241512.5351284,1695
1750241512.535205,1647
1750241512.5352807,1974
1750241512.535356,2593
1750241512.5354333,3133
1750241512.5355093,3355
1750241512.535585,3248
1750241512.535662,2907
1750241512.5357418,2466
1750241512.535831,2064
1750241512.5359087,1756
1750241512.535984,1636
1750241512.5360594,1883
1750241512.5361342,2466
1750241512.5362089,3049
1750241512.5362842,3332
1750241512.536359,3274
1750241512.5364347,2956
1750241512.5365098,2522
1750241512.5365846,2104
1750241512.53666,1774
1750241512.5367353,1600
1750241512.5368102,1779
1750241512.5368855,2335
1750241512.5369604,2971
1750241512.5370352,3329
1750241512.5371106,3326
1750241512.537186,3027
1750241512.537261,2596
1750241512.5373363,2175
1750241512.5374117,1853
1750241512.5374823,1660
1750241512.5375464,1767
1750241512.5376215,2241
1750241512.5376966,2865
1750241512.5377736,3275
1750241512.5378492,3353
1750241512.5379243,3119
1750241512.5379996,2706
1750241512.538075,2250
1750241512.53814,1883
1750241512.5382028,1652
1750241512.5382783,1710
1750241512.538354,2143
1750241512.605867,2773
1750241512.6059866,3227
1750241512.6060934,3356
1750241512.6061985,3176
1750241512.6063025,2795
1750241512.6064079,2334
1750241512.6065125,1936
1750241512.6066344,1666
1750241512.606739,1667
1750241512.6068437,2052
1750241512.606948,2679
1750241512.607052,3171
1750241512.6071572,3341
1750241512.6072617,3208
1750241512.6073656,2865
1750241512.607472,2420
1750241512.6075764,2001
1750241512.6076808,1688
1750241512.6077847,1617
1750241512.6078892,1943
1750241512.607993,2566
1750241512.608097,3110
1750241512.6082008,3335
1750241512.6083047,3251
1750241512.6084194,2944
1750241512.6085355,2515
1750241512.608645,2080
1750241512.6087482,1735
1750241512.6088521,1604
1750241512.6089597,1866
1750241512.6090636,2462
1750241512.6091673,3040
1750241512.6092713,3310
1750241512.609375,3270
1750241512.6094785,2998
1750241512.6095831,2594
1750241512.6096878,2156
1750241512.6097968,1788
1750241512.609923,1595
1750241512.610032,1777
1750241512.6101375,2330
1750241512.610241,2951
1750241512.6103444,3294
1750241512.6104505,3315
1750241512.6151206,3077
1750241512.6152384,2691
1750241512.6153433,2248
1750241512.6154478,1861
1750241512.6155522,1613
1750241512.615656,1711
1750241512.6157594,2218
1750241512.6158633,2887
1750241512.615967,3316
1750241512.6160705,3388
1750241512.616174,3154
1750241512.616277,2757
1750241512.6163802,2319
1750241512.6164925,1947
1750241512.6165955,1686
1750241512.6166983,1695
1750241512.6168015,2093
1750241512.6168785,2723
1750241512.6169538,3197
1750241512.6170287,3343
1750241512.617103,3183
1750241512.617178,2827
1750241512.6696813,2388
1750241512.6754487,1989
1750241512.675604,1694
1750241512.6757114,1651
1750241512.675817,2007
1750241512.6759217,2638
1750241512.6760259,3158
1750241512.6761315,3345
1750241512.6763248,3223
1750241512.6764317,2893
1750241512.676536,2459
1750241512.6766407,2042
1750241512.6767452,1714
1750241512.6768496,1607
1750241512.6769543,1896
1750241512.677059,2512
1750241512.6771624,3086
1750241512.6772666,3338
1750241512.6773858,3266
1750241512.6775808,2963
1750241512.677687,2548
1750241512.6777906,2127
1750241512.6778944,1780
1750241512.6780038,1605
1750241512.678108,1813
1750241512.678211,2403
1750241512.678315,3047
1750241512.678432,3385
1750241512.6785362,3365
1750241512.6786397,3067
1750241512.6787453,2650
1750241512.6788511,2234
1750241512.6789603,1895
1750241512.6790638,1678
1750241512.6791673,1776
1750241512.67927,2253
1750241512.6793885,2872
1750241512.6798027,3264
1750241512.6799495,3330
1750241512.6800551,3106
1750241512.6801596,2715
1750241512.6802642,2272
1750241512.6803687,1894
1750241512.6804736,1649
1750241512.680578,1719
1750241512.6806839,2180
1750241512.6807876,2813
1750241512.6808913,3231
1750241512.6813262,3317
1750241512.6814373,3126
1750241512.682222,2771
1750241512.6823292,2339
1750241512.6824338,1942
1750241512.6859238,1649
1750241512.7008054,1642
1750241512.7009177,2051
1750241512.7010365,2707
1750241512.7011418,3200
1750241512.7012463,3343
1750241512.701351,3179
1750241512.701547,2835
1750241512.7532873,2417
1750241512.7792752,2030
1750241512.8435397,1716
1750241512.8477585,1622
1750241512.8480325,1940
1750241512.8484182,2594
1750241512.8485963,3185
1750241512.8490705,3421
1750241512.8492424,3296
1750241512.8494325,2938
1750241512.8496006,2507
1750241512.8497815,2122
1750241512.849951,1811
1750241512.8502512,1652
1750241512.850372,1862
1750241512.850487,2457
1750241512.8506024,3097
1750241512.8507183,3425
1750241512.8508332,3374
1750241512.8509483,3040
1750241512.851063,2609
1750241512.85118,2218
1750241512.8512955,1906
1750241512.8514104,1705
1750241512.8515253,1826
1750241512.8516436,2343
1750241512.8517785,2994
1750241512.8518984,3387
1750241512.852014,3403
1750241512.8521297,3107
1750241512.8522267,2678
1750241512.8523185,2257
1750241512.8523977,1921
1750241512.8524816,1689
1750241512.8525667,1752
1750241512.8526506,2220
1750241512.852734,2883
1750241512.8528178,3332
1750241512.8529027,3407
1750241512.852986,3155
1750241512.8530698,2746
1750241512.8531535,2322
1750241512.8532372,1981
1750241512.8533251,1727
1750241512.8534117,1723
1750241512.853497,2111
1750241512.8535805,2747
1750241512.8536654,3229
1750241512.8537502,3363
1750241512.8538334,3175
1750241512.8539188,2809
1750241512.8540087,2390
1750241512.854096,2016
1750241512.8541832,1714
1750241512.85427,1652
1750241512.8562129,2027
1750241512.856306,2734
1750241512.8563955,3330
1750241512.856485,3522
1750241512.8579943,3329
1750241512.858079,2937
1750241512.8581607,2524
1750241512.8582416,2181
1750241512.8583105,1884
1750241512.8583968,1727
1750241512.8584647,1948
1750241512.8585322,2559
1750241512.8585982,3191
1750241512.858673,3487
1750241512.8587508,3393
1750241512.8588285,3034
1750241512.8589053,2602
1750241512.8589823,2225
1750241512.85906,1917
1750241512.859137,1727
1750241512.8592138,1872
1750241512.8592916,2406
1750241512.8593695,3035
1750241512.8594484,3386
1750241512.8595254,3366
1750241512.859603,3050
1750241512.85968,2612
1750241512.859758,2198
1750241512.8598354,1878
1750241512.8599122,1682
1750241512.8599935,1802
1750241512.8600712,2313
1750241512.8601487,2966
1750241512.860236,3364
1750241512.8603146,3385
1750241512.860393,3097
1750241512.8604717,2678
1750241512.8605497,2266
1750241512.860627,1932
1750241512.8607037,1681
1750241512.8607814,1708
1750241512.8608592,2159
1750241512.8609364,2854
1750241512.8610144,3352
1750241512.8610928,3447
1750241512.861175,3185
1750241512.861258,2767
1750241512.8613362,2355
1750241512.861414,2022
1750241512.8614912,1742
1750241512.8615682,1678
1750241512.8616455,2034
1750241512.8751476,2715
1750241512.8752377,3284
1750241512.8753183,3459
1750241512.8753982,3250
1750241512.875479,2846
1750241512.8755581,2428
1750241512.8756363,2086
1750241512.8757153,1798
1750241512.8757935,1676
1750241512.8758717,1951
1750241512.87595,2597
1750241512.8760383,3213
1750241512.876114,3468
1750241512.8761911,3332
1750241512.8762696,2954
1750241512.8763473,2519
1750241512.8764248,2140
1750241512.8765025,1830
1750241512.8765807,1672
1750241512.8766582,1893
1750241512.876736,2499
1750241512.876814,3128
1750241512.8768914,3422
1750241512.8769689,3340
1750241512.8770463,3009
1750241512.8771234,2601
1750241512.8772016,2214
1750241512.8772795,1880
1750241512.877357,1668
1750241512.8774343,1817
1750241512.8775127,2382
1750241512.8775911,3044
1750241512.8776715,3399
1750241512.9996414,3369
1750241513.0072625,3065
1750241513.0074265,2665
1750241513.0075638,2269
1750241513.0077157,1924
1750241513.0078485,1671
1750241513.0079813,1747
1750241513.0084975,2258
1750241513.0104206,2947
1750241513.091895,3370
1750241513.1275797,3393
1750241513.1276705,3108
1750241513.1290617,2711
1750241513.129258,2314
1750241513.1445675,1965
1750241513.1446924,1673
1750241513.1448104,1653
1750241513.145516,2086
1750241513.1456363,2803
1750241513.145757,3333
1750241513.1463182,3449
1750241513.1464407,3205
1750241513.1465588,2807
1750241513.1467085,2408
1750241513.1468315,2069
1750241513.14695,1770
1750241513.1470664,1670
1750241513.1610699,1998
1750241513.1722791,2675
1750241513.1724129,3257
1750241513.1726959,3449
1750241513.175394,3262
1750241513.1754746,2880
1750241513.1755514,2473
1750241513.175843,2123
1750241513.176122,1816
1750241513.176198,1668
1750241513.1762733,1923
1750241513.1763484,2565
1750241513.1764245,3190
1750241513.1765006,3450
1750241513.1765754,3321
1750241513.1766508,2958
1750241513.1767259,2540
1750241513.1768012,2164
1750241513.176876,1836
1750241513.176951,1639
1750241513.1770267,1824
1750241513.1771016,2428
1750241513.1771767,3097
1750241513.1772523,3428
1750241513.1773276,3354
1750241513.1774032,3007
1750241513.1774786,2589
1750241513.177554,2207
1750241513.177638,1882
1750241513.1777139,1653
1750241513.1777897,1762
1750241513.1778657,2306
1750241513.1779597,3002
1750241513.1780334,3409
1750241513.1781054,3403
1750241513.1781778,3087
1750241513.178252,2667
1750241513.1783257,2266
1750241513.1784167,1925
1750241513.1784906,1655
1750241513.178564,1677
1750241513.1786375,2137
1750241513.178711,2827
1750241513.1787846,3296
1750241513.178858,3369
1750241513.178931,3114
1750241513.1790044,2722
1750241513.1790779,2314
1750241513.1791518,1954
1750241513.1792254,1656
1750241513.1792989,1618
1750241513.179372,2024
1750241513.1794457,2722
1750241513.1795192,3254
1750241513.1795926,3384
1750241513.1796663,3166
1750241513.1797395,2785
1750241513.179813,2380
1750241513.1798863,2018
1750241513.1799595,1706
1750241513.180033,1602
1750241513.1801062,1926
1750241513.18018,2599
1750241513.1802528,3183
1750241513.1803262,3386
1750241513.1804001,3225
1750241513.1804733,2866
1750241513.1805463,2459
1750241513.1806192,2090
1750241513.1806922,1766
1750241513.1807656,1605
1750241513.1808405,1847
1750241513.180916,2475
1750241513.1809845,3100
1750241513.1810575,3370
1750241513.1811306,3267
1750241513.181209,2935
1750241513.1812897,2540
1750241513.1813674,2160
1750241513.1814475,1814
1750241513.181518,1587
1750241513.181597,1749
1750241513.1816773,2357
1750241513.1914873,3061
1750241513.209013,3425
1750241513.2616062,3368
1750241513.26408,3027
1750241513.2642412,2617
1750241513.264318,2244
1750241513.264389,1923
1750241513.2644892,1670
1750241513.2645605,1726
1750241513.264632,2218
1750241513.2647076,2897
1750241513.2647848,3324
1750241513.264889,3361
1750241513.2649615,3092
1750241513.2650483,2706
1750241513.2651203,2312
1750241513.265192,1964
1750241513.2652626,1684
1750241513.2653658,1690
1750241513.2654302,2138
1750241513.2719033,2838
1750241513.2720335,3336
1750241513.2721467,3434
1750241513.2722554,3192
1750241513.2723336,2794
1750241513.2724245,2378
1750241513.272511,2030
1750241513.272588,1749
1750241513.2727554,1682
1750241513.2797887,2009
1750241513.2798755,2636
1750241513.2799518,3163
1750241513.2800212,3352
1750241513.2800891,3203
1750241513.3058045,2844
1750241513.3289995,2414
1750241513.3290882,2028
1750241513.329156,1724
1750241513.3292227,1631
1750241513.3292913,1946
1750241513.3293574,2605
1750241513.3294208,3202
1750241513.329598,3432
1750241513.3296673,3297
1750241513.3297377,2941
1750241513.3298082,2524
1750241513.3298783,2147
1750241513.329949,1828
1750241513.33002,1653
1750241513.3300955,1848
1750241513.330157,2424
1750241513.3302221,3037
1750241513.3302925,3335
1750241513.3303623,3276
1750241513.3356266,2970
1750241513.3546836,2575
1750241513.3547566,2187
1750241513.3548253,1849
1750241513.354895,1621
1750241513.3549628,1739
1750241513.3550603,2271
1750241513.3727555,2931
1750241513.3745162,3315
1750241513.375444,3321
1750241513.3755553,3033
1750241513.3756626,2626
1750241513.3760362,2219
1750241513.3761146,1882
1750241513.3761907,1646
1750241513.3762662,1721
1750241513.3763418,2224
1750241513.3764174,2928
1750241513.3764923,3388
1750241513.3765676,3444
1750241513.3826272,3169
1750241513.3827863,2764
1750241513.383004,2365
1750241513.3886395,2030
1750241513.388729,1744
1750241513.3888135,1694
1750241513.3888974,2074
1750241513.3889823,2754
1750241513.3890736,3290
1750241513.3891582,3432
1750241513.3892422,3214
1750241513.3893251,2827
1750241513.3894093,2427
1750241513.389487,2084
1750241513.389694,1776
1750241513.3897796,1653
1750241513.3898637,1956
1750241513.3899493,2631
1750241513.3900359,3240
1750241513.390119,3455
1750241513.3901896,3273
1750241513.3902702,2883
1750241513.3903563,2476
1750241513.3904653,2139
1750241513.390595,1841
1750241513.390687,1670
1750241513.3907704,1884
1750241513.3912504,2506
1750241513.3972976,3155
1750241513.3978946,3448
1750241513.4072163,3333
1750241513.4684155,2966
1750241513.471114,2554
1750241513.471688,2202
1750241513.5521998,1898
1750241513.5616894,1681
1750241513.5937154,1797
1750241513.6261122,2329
1750241513.6293464,2974
1750241513.6300793,3328
1750241513.6315103,3295
1750241513.632652,2978
1750241513.641702,2567
1750241513.6711464,2185
1750241513.672522,1871
1750241513.6726055,1654
1750241513.6726804,1755
1750241513.677121,2268
1750241513.6852365,2934
1750241513.6861634,3330
1750241513.695043,3337
1750241513.695613,3055
1750241513.6960053,2670
1750241513.6963906,2288
1750241513.7089024,1950
1750241513.7094164,1668
1750241513.7099373,1669
1750241513.7104337,2124
1750241513.7138898,2841
1750241513.7151685,3347
1750241513.7194188,3428
1750241513.7213984,3159
1750241513.7220542,2758
1750241513.7225456,2372
1750241513.7230384,2053
1750241513.723536,1765
1750241513.7254937,1679
1750241513.729562,2023
1750241513.7327702,2709
1750241513.7333403,3284
1750241513.7338488,3457
1750241513.7493372,3245
1750241513.749859,2848
1750241513.7503798,2445
1750241513.7509143,2118
1750241513.7514136,1822
1750241513.7572656,1665
1750241513.7612672,1892
1750241513.7618425,2504
1750241513.7630553,3110
1750241513.7645295,3366
1750241513.771129,3236
1750241513.7824697,2871
1750241513.7868006,2460
1750241513.7873108,2107
1750241513.7878056,1809
1750241513.7882953,1644
1750241513.7914455,1858
1750241513.7921896,2480
1750241513.8574753,3145
1750241513.8581226,3453
1750241513.8719027,3350
1750241513.8723001,2989
1750241513.8726735,2581
1750241513.8730457,2227
1750241513.8734174,1926
1750241513.875174,1703
1750241513.875565,1800
1750241513.909877,2312
1750241513.9099488,2959
1750241513.9100113,3331
1750241513.9100745,3324
1750241513.9101357,3037
1750241513.9625537,2647
1750241513.9863963,2255
1750241514.0059144,1910
1750241514.0060728,1649
1750241514.0061557,1709
1750241514.0062373,2215
1750241514.0063188,2922
1750241514.0064063,3377
1750241514.0064871,3421
1750241514.0820274,3144
1750241514.0990243,2747
1750241514.099133,2354
1750241514.0992305,2023
1750241514.0993125,1749
1750241514.124594,1721
1750241514.126784,2114
1750241514.1277664,2784
1750241514.1391687,3292
1750241514.1392472,3418
1750241514.1393216,3201
1750241514.1393945,2820
1750241514.1394668,2414
1750241514.1395395,2065
1750241514.1396127,1770
1750241514.1396856,1682
1750241514.1397595,2011
1750241514.1398325,2673
1750241514.1399052,3240
1750241514.1399784,3427
1750241514.1400506,3251
1750241514.1401324,2882
1750241514.1401997,2478
1750241514.1402676,2118
1750241514.1403346,1800
1750241514.143764,1638
1750241514.1438994,1883
1750241514.1440077,2525
1750241514.1593578,3162
1750241514.1612706,3431
1750241514.2006183,3305
1750241514.2133858,2942
1750241514.2136557,2532
1750241514.213827,2172
1750241514.2139325,1857
1750241514.214077,1647
1750241514.2192693,1796
1750241514.2328718,2363
1750241514.2329469,3020
1750241514.2330165,3363
1750241514.2330842,3316
1750241514.233151,3002
1750241514.2332182,2610
1750241514.233729,2243
1750241514.246464,1914
1750241514.3064904,1659
1750241514.3065886,1733
1750241514.3066692,2260
1750241514.306749,2967
1750241514.3068285,3392
1750241514.3069077,3392
1750241514.3069847,3079
1750241514.307063,2682
1750241514.307141,2320
1750241514.3072262,2008
1750241514.307304,1726
1750241514.307383,1701
1750241514.3074617,2131
1750241514.3075397,2841
1750241514.3076172,3346
1750241514.307695,3421
1750241514.3077726,3138
1750241514.3078449,2733
1750241514.30792,2360
1750241514.3079944,2057
1750241514.3080695,1773
1750241514.308144,1678
1750241514.308219,2008
1750241514.3082936,2676
1750241514.3088696,3234
1750241514.3250997,3398
1750241514.3251812,3192
1750241514.325256,2809
1750241514.3253303,2416
1750241514.3254344,2082
1750241514.3254986,1783
1750241514.3255665,1653
1750241514.3256395,1938
1750241514.325713,2600
1750241514.3258033,3214
1750241514.325882,3439
1750241514.3259547,3274
1750241514.3260279,2898
1750241514.3260949,2495
1750241514.3262424,2153
1750241514.3263159,1855
1750241514.32639,1676
1750241514.3264673,1864
1750241514.3265402,2450
1750241514.326639,3074
1750241514.3267152,3365
1750241514.3267887,3279
1750241514.326861,2956
1750241514.3269336,2572
1750241514.327006,2211
1750241514.327116,1882
1750241514.3271894,1648
1750241514.3272624,1772
1750241514.3273354,2339
1750241514.3274088,3028
1750241514.3275068,3398
1750241514.3275802,3353
1750241514.3276532,3031
1750241514.3277254,2640
1750241514.3277981,2281
1750241514.3278701,1966
1750241514.3279684,1708
1750241514.3280425,1745
1750241514.3281152,2217
1750241514.328188,2886
1750241514.328261,3300
1750241514.3283336,3318
1750241514.3284638,3044
1750241514.328538,2676
1750241514.3286114,2310
1750241514.3286843,1969
1750241514.328758,1663
1750241514.3288333,1623
1750241514.328906,2046
1750241514.3289788,2756
1750241514.329051,3274
1750241514.3291242,3373
1750241514.3291955,3131
1750241514.335513,2753
1750241514.335597,2372
1750241514.3356724,2041
1750241514.3357463,1741
1750241514.3358214,1640
1750241514.3358943,1967
1750241514.3359644,2635
1750241514.3360364,3198
1750241514.3361068,3365
1750241514.336178,3170
1750241514.3362494,2806
1750241514.3363202,2429
1750241514.3747838,2097
1750241514.383508,1778
1750241514.3846445,1600
1750241514.3847547,1844
1750241514.384872,2517
1750241514.3849778,3193
1750241514.3851025,3471
1750241514.385209,3317
1750241514.3853157,2925
1750241514.3854244,2520
1750241514.3856673,2191
1750241514.3857849,1893
1750241514.385909,1662
1750241514.3860211,1774
1750241514.386131,2327
1750241514.3862374,3002
1750241514.3863482,3368
1750241514.3864553,3319
1750241514.3865623,2977
1750241514.3866684,2564
1750241514.3867738,2198
1750241514.386879,1894
1750241514.3869853,1661
1750241514.3870912,1736
1750241514.3871973,2239
1750241514.3873024,2916
1750241514.3874075,3329
1750241514.3877702,3341
1750241514.3883355,3046
1750241514.3884625,2645
1750241514.389707,2260
1750241514.3910034,1934
1750241514.3910859,1672
1750241514.391191,1686
1750241514.3913488,2131
1750241514.391459,2815
1750241514.3915658,3290
1750241514.3929765,3371
1750241514.393091,3124
1750241514.3948367,2737
1750241514.394945,2335
1750241514.3950696,1991
1750241514.4166963,1710
1750241514.4168413,1668
1750241514.4169497,2041
1750241514.4170582,2698
1750241514.4171653,3209
1750241514.4172723,3349
1750241514.4173856,3160
1750241514.4193406,2802
1750241514.4194527,2400
1750241514.4195592,2042
1750241514.4196663,1743
1750241514.4197757,1640
1750241514.419881,1936
1750241514.4199858,2565
1750241514.42009,3134
1750241514.4201949,3359
1750241514.4203012,3233
1750241514.4204075,2882
1750241514.4205134,2459
1750241514.420619,2077
1750241514.4207244,1776
1750241514.4208293,1639
1750241514.420934,1866
1750241514.4210458,2448
1750241514.4211547,3044
1750241514.4459128,3330
1750241514.4461484,3267
1750241514.4471965,2954
1750241514.4472797,2541
1750241514.4473593,2145
1750241514.447439,1818
1750241514.4475188,1624
1750241514.4475982,1782
1750241514.4476774,2338
1750241514.4477568,2989
1750241514.4478354,3344
1750241514.44849,3322
1750241514.4485693,3026
1750241514.4487135,2631
1750241514.4488022,2243
1750241514.4488835,1899
1750241514.4489644,1633
1750241514.449045,1689
1750241514.4491417,2204
1750241514.4492235,2929
1750241514.449304,3393
1750241514.449385,3424
1750241514.4494588,3124
1750241514.4495263,2725
1750241514.4518504,2356
1750241514.4519603,2032
1750241514.4520679,1724
1750241514.4521883,1652
1750241514.4522958,2047
1750241514.4524026,2769
1750241514.4525108,3324
1750241514.4526334,3447
1750241514.4527557,3189
1750241514.4528635,2788
1750241514.4529717,2409
1750241514.4530897,2096
1750241514.4531987,1797
1750241514.4533055,1671
1750241514.4534135,1969
1750241514.4535358,2630
1750241514.453644,3205
1750241514.453751,3387
1750241514.4538586,3200
1750241514.4539816,2836
1750241514.4540925,2456
1750241514.4542015,2120
1750241514.4543097,1802
1750241514.4544299,1634
1750241514.5024004,1887
1750241514.5132096,2550
1750241514.5132835,3199
1750241514.5133564,3456
1750241514.513429,3303
1750241514.5134904,2925
1750241514.513562,2527
1750241514.5136392,2199
1750241514.5137107,1910
1750241514.5137784,1709
1750241514.5138507,1854
1750241514.5139222,2418
1750241514.5139942,3072
1750241514.514066,3410
1750241514.514126,3349
1750241514.5141976,3014
1750241514.514269,2611
1750241514.5143416,2249
1750241514.5144136,1936
1750241514.5144854,1692
1750241514.514557,1766
1750241514.5146286,2282
1750241514.5147002,2972
1750241514.5147722,3386
1750241514.5148442,3384
1750241514.5149155,3071
1750241514.5149872,2665
1750241514.5150692,2290
1750241514.5151417,1976
1750241514.5152133,1712
1750241514.515285,1712
1750241514.5153563,2139
1750241514.5154278,2809
1750241514.5154998,3275
1750241514.515571,3351
1750241514.5156512,3106
1750241514.515723,2730
1750241514.5157948,2345
1750241514.5158663,2007
1750241514.515938,1719
1750241514.5160096,1668
1750241514.5160809,2044
1750241514.5161524,2711
1750241514.5162234,3224
1750241514.5162952,3353
1750241514.516367,3154
1750241514.5164382,2798
1750241514.51651,2406
1750241514.5165818,2049
1750241514.5166535,1737
1750241514.5167248,1630
1750241514.516796,1949
1750241514.5168676,2608
1750241514.5169394,3173
1750241514.5170114,3356
1750241514.517083,3193
1750241514.5171545,2858
1750241514.517226,2487
1750241514.5172975,2139
1750241514.5173693,1809
1750241514.5174377,1620
1750241514.517499,1842
1750241514.517572,2483
1750241514.5176437,3143
1750241514.5177152,3431
1750241514.5177875,3313
1750241514.542272,2957
1750241514.58906,2564
1750241514.5894103,2222
1750241514.5919259,1916
1750241514.5922868,1688
1750241514.5926313,1801
1750241514.5929735,2354
1750241514.5933797,3042
1750241514.5937116,3423
1750241514.5940511,3392
1750241514.594384,3067
1750241514.6170902,2665
1750241514.6194415,2300
1750241514.6195235,1983
1750241514.6195982,1717
1750241514.6196713,1744
1750241514.6197445,2217
1750241514.6198244,2909
1750241514.6198974,3360
1750241514.6199696,3394
1750241514.6200426,3101
1750241514.6201148,2701
1750241514.6444638,2328
1750241514.670969,2017
1750241514.6710658,1742
1750241514.6711473,1694
1750241514.6712277,2068
1750241514.671308,2723
1750241514.6713872,3220
1750241514.6714666,3337
1750241514.6715941,3115
1750241514.6716754,2734
1750241514.671765,2332
1750241514.6718447,1992
1750241514.6719236,1719
1750241514.6720026,1670
1750241514.6720817,2034
1750241514.6721609,2695
1750241514.6722398,3227
1750241514.672319,3383
1750241514.672398,3209
1750241514.672477,2861
1750241514.6725554,2465
1750241514.6726344,2104
1750241514.6727133,1792
1750241514.6728022,1656
1750241514.6728878,1912
1750241514.6729567,2516
1750241514.673024,3088
1750241514.6730926,3326
1750241514.673168,3229
1750241514.6732461,2914
1750241514.6733246,2517
1750241514.6734042,2137
1750241514.6734815,1815
1750241514.6735415,1644
1750241514.6736138,1851
1750241514.6736915,2450
1750241514.6737695,3093
1750241514.6738472,3403
1750241514.673926,3332
1750241514.6740086,3001
1750241514.6740882,2596
1750241514.6741488,2222
1750241514.6742165,1905
1750241514.674295,1680
1750241514.6743739,1781
1750241514.6744523,2305
1750241514.6745305,2985
1750241514.6746135,3392
1750241514.6746938,3405
1750241514.6747746,3112
1750241514.674862,2707
1750241514.6749399,2310
1750241514.675019,1978
1750241514.6895175,1724
1750241514.6895955,1745
1750241514.68967,2170
1750241514.6897438,2802
1750241514.689818,3236
1750241514.689892,3321
1750241514.6899657,3113
1750241514.6900399,2751
1750241514.6901138,2337
1750241514.6901922,1962
1750241514.6902661,1672
1750241514.6903393,1652
1750241514.6904125,2048
1750241514.690486,2702
1750241514.6905682,3198
1750241514.690642,3342
1750241514.6907163,3170
1750241514.6907895,2814
1750241514.6908634,2389
1750241514.6909373,2011
1750241514.6910112,1724
1750241514.6910846,1664
1750241514.6911585,1995
1750241514.6912317,2619
1750241514.6913054,3146
1750241514.6913788,3332
1750241514.6914525,3199
1750241514.6915257,2869
1750241514.6915996,2464
1750241514.6916757,2079
1750241514.6917686,1749
1750241514.691843,1592
1750241514.6919165,1841
1750241514.6919897,2482
1750241514.692063,3133
1750241514.6921363,3431
1750241514.6922097,3336
1750241514.6922832,2987
1750241514.6923563,2576
1750241514.6924295,2210
1750241514.6925025,1897
1750241514.6925764,1680
1750241514.6926503,1803
1750241514.692725,2352
1750241514.6928005,3032
1750241514.6928744,3421
1750241514.6929479,3407
1750241514.6930215,3088
1750241514.6930952,2671
1750241514.6931686,2285
1750241514.693242,1958
1750241514.693315,1699
1750241514.6933885,1741
1750241514.6934621,2224
1750241514.6935356,2919
1750241514.693609,3372
1750241514.693682,3409
1750241514.6937551,3116
1750241514.6938307,2710
1750241514.6939065,2328
1750241514.6939802,2004
1750241514.6940544,1721
1750241514.6941278,1686
1750241514.694201,2097
1750241514.6942742,2803
1750241514.6943493,3332
1750241514.6944227,3443
1750241514.6945043,3187
1750241514.6945775,2781
1750241514.6946504,2384
1750241514.6947243,2055
1750241514.6947975,1765
1750241514.6948705,1670
1750241514.6949432,1989
1750241514.6950166,2642
1750241514.7205548,3197
1750241514.7606826,3379
1750241514.760801,3207
1750241514.7608771,2847
1750241514.760951,2445
1750241514.7610252,2090
1750241514.7610993,1786
1750241514.7965162,1658
1750241514.7965925,1923
1750241514.796662,2538
1750241514.7967348,3114
1750241514.7968028,3342
1750241514.7968702,3225
1750241514.796937,2898
1750241514.797004,2503
1750241514.7970717,2132
1750241514.7971385,1809
1750241514.7972062,1629
1750241514.7972753,1834
1750241514.7973413,2446
1750241514.7974033,3106
1750241514.7974648,3424
1750241514.797525,3342
1750241514.7975852,2995
1750241514.7976453,2583
1750241514.7977054,2216
1750241514.7977657,1907
1750241514.797825,1679
1750241514.797885,1771
1750241514.7979453,2292
1750241514.7980149,2975
1750241514.7980807,3383
1750241514.7981496,3385
1750241514.798217,3072
1750241514.798285,2660
1750241514.7983522,2285
1750241514.7984343,1977
1750241514.7985027,1719
1750241514.7985706,1711
1750241514.7986383,2109
1750241514.7987118,2743
1750241514.7987816,3195
1750241514.7988482,3289
1750241514.7989182,3070
1750241514.798988,2701
1750241514.7990577,2300
1750241514.7991288,1949
1750241514.7991984,1672
1750241514.799268,1666
1750241514.799338,2107
1750241514.7994082,2825
1750241514.7994747,3351
1750241514.7995443,3449
1750241514.799614,3196
1750241514.7996836,2811
1750241514.7997532,2436
1750241514.7998183,2111
1750241514.7998834,1795
1750241514.7999492,1642
1750241514.8000138,1919
1750241514.8000789,2591
1750241514.8001442,3215
1750241514.8002095,3445
1750241514.8002744,3274
1750241514.8003395,2896
1750241514.8004045,2504
1750241514.8004699,2178
1750241514.8005347,1873
1750241514.8006003,1679
1750241514.8006775,1874
1750241514.800746,2497
1750241514.8008173,3157
1750241514.8008862,3451
1750241514.8009553,3331
1750241514.8010259,2967
1750241514.8010955,2576
1750241514.8011622,2242
1750241514.8012326,1932
1750241514.8013031,1681
1750241514.8013732,1771
1750241514.8014433,2321
1750241514.8015122,3015
1750241514.8015814,3400
1750241514.8016486,3352
1750241514.8017247,3007
1750241514.801794,2603
1750241514.8018634,2259
1750241514.8019345,1969
1750241514.8020039,1721
1750241514.8020728,1749
1750241514.8021414,2209
1750241514.802208,2882
1750241514.8022766,3315
1750241514.8023453,3350
1750241514.8024147,3067
1750241514.802484,2674
1750241514.802553,2298
1750241514.8026214,1982
1750241514.8026903,1716
1750241514.8027594,1707
1750241514.8028283,2127
1750241514.8028965,2801
1750241514.8029652,3274
1750241514.8030355,3346
1750241514.8031044,3097
1750241514.803171,2726
1750241514.8032403,2355
1750241514.8033085,2026
1750241514.8033774,1725
1750241514.803446,1636
1750241514.8035157,1993
1750241514.8035858,2695
1750241514.8036542,3275
1750241514.8037236,3440
1750241514.8037925,3227
1750241514.803861,2839
1750241514.8039296,2445
1750241514.8039978,2118
1750241514.8040676,1825
1750241514.8041365,1675
1750241514.8042057,1914
1750241514.804275,2528
1750241514.8043444,3122
1750241514.8044136,3365
1750241514.8044806,3245
1750241514.80455,2910
1750241514.804625,2523
1750241514.8113103,2170
1750241514.8114238,1848
1750241514.8115296,1646
1750241514.8116345,1826
1750241514.8117578,2431
1750241514.811863,3099
1750241514.8119674,3421
1750241514.8847437,3332
1750241514.891884,2981
1750241514.893095,2577
1750241514.8940508,2224
1750241514.8962991,1919
1750241514.896853,1685
1750241514.9100053,1776
1750241514.9104302,2306
1750241514.9221637,2996
1750241514.9239407,3399
1750241514.930931,3384
1750241514.931446,3059
1750241514.9517407,2649
1750241515.0414455,2275
1750241515.0415268,1962
1750241515.0415964,1704
1750241515.0417528,1724
1750241515.0418222,2174
1750241515.0420003,2847
1750241515.042069,3297
1750241515.0421364,3355
1750241515.0422034,3102
1750241515.04227,2725
1750241515.0423372,2329
1750241515.0424042,1966
1750241515.0424733,1658
1750241515.0425406,1622
1750241515.0426085,2042
1750241515.0426764,2748
1750241515.042745,3265
1750241515.042812,3369
1750241515.0428784,3139
1750241515.042946,2770
1750241515.0430129,2383
1750241515.0430832,2027
1750241515.0431511,1706
1750241515.0432198,1597
1750241515.0432875,1927
1750241515.0433555,2607
1750241515.0434246,3187
1750241515.0434926,3377
1750241515.043562,3209
1750241515.0436294,2856
1750241515.0437222,2460
1750241515.043796,2089
1750241515.0438633,1758
1750241515.043933,1596
1750241515.0440054,1844
1750241515.0440729,2477
1750241515.0441391,3096
1750241515.0442054,3360
1750241515.044272,3261
1750241515.044339,2937
1750241515.0444155,2541
1750241515.044484,2157
1750241515.044551,1817
1750241515.0446177,1602
1750241515.0446842,1747
1750241515.0447507,2289
1750241515.0448167,2910
1750241515.0448833,3239
1750241515.044952,3222
1750241515.0450191,2947
1750241515.0735412,2560
1750241515.104094,2159
1750241515.131135,1809
1750241515.1736863,1580
1750241515.2048426,1704
1750241515.2142687,2255
1750241515.214635,2947
1750241515.2149851,3343
1750241515.215358,3340
1750241515.2156951,3049
1750241515.2160351,2666
1750241515.2163768,2288
1750241515.2167118,1943
1750241515.2189982,1643
1750241515.2198637,1627
1750241515.2199376,2084
1750241515.2200067,2822
1750241515.2200763,3350
1750241515.2201447,3443
1750241515.2202165,3175
1750241515.2202878,2777
1750241515.2203588,2395
1750241515.220434,2070
1750241515.220505,1762
1750241515.220575,1652
1750241515.2211883,1978
1750241515.299438,2655
1750241515.3243747,3225
1750241515.3486714,3397
1750241515.349375,3197
1750241515.3737075,2821
1750241515.3739152,2428
1750241515.3760662,2083
1750241515.376179,1760
1750241515.3762841,1603
1750241515.3764966,1879
1750241515.3766317,2564
1750241515.3768961,3220
1750241515.3770015,3471
1750241515.377105,3303
1750241515.3773146,2909
1750241515.3774114,2500
1750241515.377513,2163
1750241515.3776195,1863
1750241515.3785138,1660
1750241515.3786118,1822
1750241515.3787415,2419
1750241515.3788455,3104
1750241515.3789482,3456
1750241515.3791087,3383
1750241515.379276,3021
1750241515.3793826,2597
1750241515.3798366,2235
1750241515.3799934,1933
1750241515.3800998,1706
1750241515.3802028,1795
1750241515.3803062,2316
1750241515.3804312,2999
1750241515.3805332,3405
1750241515.3806405,3396
1750241515.3807478,3072
1750241515.380869,2652
1750241515.3809717,2268
1750241515.3810766,1949
1750241515.38118,1693
1750241515.387655,1724
1750241515.3879852,2197
1750241515.388144,2903
1750241515.3883069,3379
1750241515.3885105,3433
1750241515.3886979,3143
1750241515.388864,2729
1750241515.3890173,2329
1750241515.4130907,1994
1750241515.479932,1712
1750241515.4859684,1680
1750241515.5162654,2098
1750241515.5416899,2814
1750241515.54183,3351
1750241515.543685,3461
1750241515.5438354,3208
1750241515.5443676,2810
1750241515.544503,2415
1750241515.5446439,2071
1750241515.5447845,1744
1750241515.5449302,1606
1750241515.5452094,1920
1750241515.5455596,2625
1750241515.5456812,3259
1750241515.5465274,3478
1750241515.5469387,3286
1750241515.5470688,2890
1750241515.547189,2485
1750241515.5473216,2148
1750241515.547987,1832
1750241515.548115,1641
1750241515.5483303,1850
1750241515.54848,2493
1750241515.5487163,3168
1750241515.5488439,3467
1750241515.54929,3334
1750241515.5495162,2945
1750241515.5497525,2531
1750241515.5498865,2188
1750241515.5501418,1885
1750241515.5503428,1659
1750241515.5504713,1783
1750241515.550642,2356
1750241515.5658422,3054
1750241515.5659287,3432
1750241515.5660095,3379
1750241515.5662236,3029
1750241515.5663037,2614
1750241515.5663805,2256
1750241515.5664604,1955
1750241515.5665781,1712
1750241515.5666573,1763
1750241515.5667365,2243
1750241515.5668159,2911
1750241515.566894,3329
1750241515.5672448,3351
1750241515.6047406,3061
1750241515.6383832,2658
1750241515.6583815,2263
1750241515.6584656,1930
1750241515.6585402,1668
1750241515.658614,1692
1750241515.6586876,2157
1750241515.658761,2867
1750241515.658835,3361
1750241515.6589086,3441
1750241515.6589828,3177
1750241515.6590562,2777
1750241515.65913,2384
1750241515.6592033,2055
1750241515.6592767,1768
1750241515.6593497,1692
1750241515.6594226,2040
1750241515.6594963,2716
1750241515.65957,3274
1750241515.659644,3439
1750241515.6597314,3232
1750241515.6598103,2842
1750241515.6598823,2439
1750241515.6599536,2102
1750241515.6600251,1811
1750241515.660097,1685
1750241515.6601686,1961
1750241515.6602404,2606
1750241515.6641421,3210
1750241515.6963317,3445
1750241515.6964488,3304
1750241515.6968033,2948
1750241515.6969137,2548
1750241515.6970227,2190
1750241515.6971405,1873
1750241515.6972501,1689
1750241515.6973596,1886
1750241515.69985,2485
1750241515.7001853,3117
1750241515.7009802,3404
1750241515.7013357,3309
1750241515.7014139,2973
1750241515.7014794,2578
1750241515.70155,2212
1750241515.7016263,1885
1750241515.7181199,1652
1750241515.718241,1773
1750241515.7183163,2335
1750241515.7184057,3028
1750241515.7184799,3412
1750241515.718554,3381
1750241515.7186277,3053
1750241515.7187088,2646
1750241515.7187812,2276
1750241515.7188544,1965
1750241515.7189276,1710
1750241515.7190003,1741
1750241515.7190742,2208
1750241515.7191498,2901
1750241515.7192228,3363
1750241515.7192962,3421
1750241515.7193692,3145
1750241515.7194421,2745
1750241515.719515,2360
1750241515.719588,2038
1750241515.7196662,1764
1750241515.7197394,1729
1750241515.7198126,2121
1750241515.719885,2797
1750241515.7199583,3308
1750241515.7200313,3423
1750241515.7201042,3190
1750241515.720177,2802
1750241515.72025,2405
1750241515.7203224,2066
1750241515.7203953,1774
1750241515.7204678,1683
1750241515.7205398,2012
1750241515.7206135,2680
1750241515.7206917,3252
1750241515.7207644,3438
1750241515.720837,3254
1750241515.72091,2876
1750241515.7209828,2466
1750241515.721056,2110
1750241515.7211287,1802
1750241515.7212045,1656
1750241515.721279,1910
1750241515.721352,2552
1750241515.721425,3180
1750241515.7214859,3444
1750241515.7215552,3319
1750241515.7216291,2962
1750241515.721879,2557
1750241515.721955,2196
1750241515.722028,1877
1750241515.722101,1668
1750241515.7221801,1824
1750241515.7222528,2402
1750241515.7223258,3067
1750241515.7223985,3413
1750241515.7224717,3358
1750241515.7225435,3025
1750241515.7226164,2610
1750241515.7226937,2227
1750241515.7227664,1902
1750241515.7228389,1666
1750241515.7229118,1753
1750241515.7229846,2261
1750241515.7230575,2922
1750241515.7231305,3314
1750241515.7232034,3325
1750241515.7232766,3051
1750241515.7233512,2677
1750241515.7234263,2302
1750241515.7234998,1964
1750241515.7235725,1682
1750241515.7236457,1691
1750241515.7237196,2154
1750241515.7237926,2864
1750241515.7238667,3351
1750241515.7239428,3417
1750241515.7240157,3140
1750241515.7240887,2737
1750241515.7241619,2351
1750241515.724235,2032
1750241515.724308,1751
1750241515.7243803,1683
1750241515.724453,2044
1750241515.7245252,2731
1750241515.7246046,3292
1750241515.724677,3450
1750241515.7247496,3234
1750241515.7248218,2843
1750241515.7248945,2448
1750241515.7249677,2120
1750241515.7379127,1818
1750241515.738034,1669
1750241515.7381008,1932
1750241515.7381637,2585
1750241515.7382386,3209
1750241515.7383122,3450
1750241515.7384017,3288
1750241515.7384827,2906
1750241515.7419167,2503
1750241515.7718859,2172
1750241515.7722428,1876
1750241515.7724085,1687
1750241515.7871418,1868
1750241515.8333158,2470
1750241515.8334832,3131
1750241515.833593,3445
1750241515.8337014,3343
1750241515.8338094,2979
1750241515.8428288,2571
1750241515.8828933,2219
1750241515.8830137,1909
1750241515.8838797,1672
1750241515.883991,1774
1750241515.884233,2324
1750241515.8843644,3021
1750241515.8863873,3411
1750241515.8867335,3372
1750241515.8868673,3031
1750241515.8869994,2619
1750241515.88786,2255
1750241515.8898413,1945
1750241515.8899753,1687
1750241515.8901062,1717
1750241515.8902364,2189
1750241515.890367,2877
1750241515.8905141,3323
1750241515.890644,3364
1750241515.8907738,3086
1750241515.8909173,2695
1750241515.8910475,2309
1750241515.891177,1970
1750241515.891321,1680
1750241515.891451,1654
1750241515.8915803,2073
1750241515.891737,2764
1750241515.8918705,3265
1750241515.8977077,3358
1750241515.8977945,3116
1750241515.8978722,2735
1750241515.8979485,2345
1750241515.898023,2005
1750241515.8980947,1706
1750241515.8981578,1621
1750241515.898229,1968
1750241515.8983047,2649
1750241515.8983822,3216
1750241515.8992336,3389
1750241515.899814,3200
1750241515.89997,2835
1750241515.900128,2445
1750241515.9002936,2094
1750241515.9005914,1769
1750241515.9012551,1605
1750241515.908509,1866
1750241515.9094155,2535
1750241515.9096234,3188
1750241515.9097054,3451
1750241515.909785,3304
1750241515.909864,2925
1750241515.9099429,2516
1750241515.9278545,2172
1750241515.95439,1869
1750241515.9545317,1664
1750241515.9851995,1814
1750241515.9867253,2380
1750241515.9872015,3031
1750241515.9961822,3364
1750241515.9962878,3306
1750241515.9963593,2985
1750241515.9964273,2593
1750241515.9965005,2226
1750241515.9965742,1893
1750241515.9966462,1634
1750241515.9967203,1718
1750241515.9967947,2267
1750241515.9968696,2990
1750241515.996937,3412
1750241515.9970078,3390
1750241515.9970763,3049
1750241515.9971464,2635
1750241515.9972172,2272
1750241515.9972868,1969
1750241515.997355,1692
1750241515.9974158,1669
1750241515.9974825,2095
1750241515.9975536,2799
1750241515.997624,3307
1750241515.9976947,3394
1750241515.997765,3116
1750241515.9978313,2702
1750241515.9979076,2314
1750241515.9979799,2005
1750241515.998041,1734
1750241515.99811,1667
1750241515.9981785,2017
1750241515.998249,2685
1750241515.9983177,3232
1750241515.998405,3391
1750241515.998476,3183
1750241515.998551,2791
1750241515.9986205,2380
1750241515.9989853,2037
1750241515.9990535,1750
1750241515.9991212,1647
1750241516.0005739,1942
1750241516.0011346,2582
1750241516.001285,3158
1750241516.0015807,3372
1750241516.0039022,3227
1750241516.0067017,2874
1750241516.0070057,2467
1750241516.0070891,2102
1750241516.007172,1787
1750241516.0072527,1629
1750241516.0073342,1863
1750241516.0074148,2480
1750241516.007495,3099
1750241516.0075746,3365
1750241516.0076547,3254
1750241516.0077403,2915
1750241516.0078156,2523
1750241516.007891,2158
1750241516.0079668,1828
1750241516.0080423,1601
1750241516.0081177,1745
1750241516.0081933,2336
1750241516.0082695,3045
1750241516.00835,3427
1750241516.060323,3380
1750241516.0605917,3034
1750241516.0608013,2616
1750241516.0610037,2249
1750241516.114896,1942
1750241516.2287307,1689
1750241516.2552857,1721
1750241516.256308,2188
1750241516.2564147,2872
1750241516.2565124,3323
1750241516.2566104,3374
1750241516.2689419,3097
1750241516.2690527,2699
1750241516.2691593,2313
1750241516.2692487,1980
1750241516.2693148,1690
1750241516.2746642,1657
1750241516.2747827,2080
1750241516.2748876,2801
1750241516.274992,3340
1750241516.2767823,3447
1750241516.2768555,3183
1750241516.2769232,2777
1750241516.276992,2395
1750241516.2776196,2082
1750241516.277699,1790
1750241516.2777677,1674
1750241516.2778368,1986
1750241516.2900965,2665
1750241516.290245,3261
1750241516.2903194,3454
1750241516.2903926,3251
1750241516.290464,2853
1750241516.2906563,2449
1750241516.2907574,2119
1750241516.292986,1822
1750241516.2930746,1661
1750241516.2932212,1892
1750241516.2932954,2515
1750241516.2933686,3134
1750241516.2934415,3392
1750241516.2935147,3264
1750241516.2935884,2906
1750241516.3036058,2503
1750241516.3039787,2146
1750241516.3040614,1830
1750241516.3041296,1636
1750241516.3041964,1821
1750241516.3042636,2429
1750241516.3044696,3102
1750241516.3045402,3428
1750241516.3046134,3343
1750241516.3046975,2990
1750241516.3047657,2577
1750241516.3048327,2214
1750241516.3048992,1907
1750241516.304967,1682
1750241516.305049,1775
1750241516.305117,2288
1750241516.313227,2949
1750241516.3133116,3334
1750241516.3170636,3332
1750241516.3174245,3039
1750241516.31749,2649
1750241516.3175597,2268
1750241516.3176346,1932
1750241516.3177564,1663
1750241516.3178291,1695
1750241516.3335993,2176
1750241516.3336713,2886
1750241516.333741,3360
1750241516.3338048,3415
1750241516.333869,3136
1750241516.3339367,2733
1750241516.3339996,2340
1750241516.3341637,2010
1750241516.3342338,1724
1750241516.3343008,1667
1750241516.3343685,2037
1750241516.3344345,2709
1750241516.3345037,3238
1750241516.3345718,3380
1750241516.3346379,3172
1750241516.3347044,2800
1750241516.3347719,2409
1750241516.3348415,2066
1750241516.334908,1757
1750241516.334977,1634
1750241516.3354888,1940
1750241516.3485622,2618
1750241516.3486836,3228
1750241516.3487566,3441
1750241516.384431,3256
1750241516.3846114,2865
1750241516.3846838,2455
1750241516.3847616,2118
1750241516.38484,1826
1750241516.3877497,1656
1750241516.3879216,1855
1750241516.3888376,2451
1750241516.3905299,3081
1750241516.3906674,3377
1750241516.3907866,3285
1750241516.3908565,2936
1750241516.3909235,2521
1750241516.3909905,2149
1750241516.3910582,1834
1750241516.391128,1625
1750241516.3911943,1765
1750241516.3912632,2323
1750241516.3913305,2988
1750241516.391398,3352
1750241516.3914657,3318
1750241516.391534,2995
1750241516.3916001,2579
1750241516.3935754,2194
1750241516.3936856,1873
1750241516.393791,1633
1750241516.3938956,1701
1750241516.4123914,2200
1750241516.4124742,2888
1750241516.4125485,3323
1750241516.4126227,3353
1750241516.4127064,3061
1750241516.4127803,2658
1750241516.4128537,2270
1750241516.412927,1943
1750241516.4129996,1665
1750241516.4130726,1644
1750241516.4131458,2064
1750241516.4132187,2763
1750241516.413292,3279
1750241516.4133654,3388
1750241516.4134343,3142
1750241516.4134955,2748
1750241516.4135695,2357
1750241516.4136426,2032
1750241516.4137156,1749
1750241516.4137886,1667
1750241516.4138613,1997
1750241516.413934,2654
1750241516.4140065,3205
1750241516.4140732,3383
1750241516.414135,3208
1750241516.4142082,2844
1750241516.4142811,2439
1750241516.414354,2081
1750241516.4144273,1770
1750241516.4145014,1639
1750241516.414577,1915
1750241516.41465,2552
1750241516.4147263,3138
1750241516.4147995,3353
1750241516.4148724,3209
1750241516.4149451,2868
1750241516.4150183,2488
1750241516.4151046,2136
1750241516.4151785,1809
1750241516.415253,1608
1750241516.4153259,1804
1750241516.4153998,2433
1750241516.4154754,3115
1750241516.415549,3433
1750241516.415623,3333
1750241516.4156961,2974
1750241516.4157696,2573
1750241516.4158428,2227
1750241516.4159164,1926
1750241516.41599,1689
1750241516.416063,1770
1750241516.416136,2282
1750241516.4162083,2952
1750241516.4162805,3343
1750241516.445385,3335
1750241516.4454756,3032
1750241516.4455562,2641
1750241516.4467232,2271
1750241516.4468107,1947
1750241516.446891,1672
1750241516.4469712,1690
1750241516.4470506,2167
1750241516.4471304,2890
1750241516.4472106,3379
1750241516.4472911,3433
1750241516.447371,3137
1750241516.4474514,2725
1750241516.4475312,2344
1750241516.4476109,2034
1750241516.4476905,1755
1750241516.4477704,1694
1750241516.4478514,2070
1750241516.4479318,2765
1750241516.4480112,3316
1750241516.4480946,3455
1750241516.448174,3218
1750241516.4482536,2819
1750241516.4483333,2426
1750241516.448457,2098
1750241516.448544,1798
1750241516.4486265,1672
1750241516.4487064,1970
1750241516.4487865,2643
1750241516.448866,3250
1750241516.4489455,3459
1750241516.4490247,3276
1750241516.4491036,2895
1750241516.4491832,2497
1750241516.449263,2155
1750241516.449343,1838
1750241516.4494264,1648
1750241516.4495058,1860
1750241516.449586,2496
1750241516.4496655,3158
1750241516.449745,3449
1750241516.449824,3325
1750241516.4499032,2957
1750241516.4507096,2555
1750241516.4509993,2208
1750241516.451079,1897
1750241516.4511592,1671
1750241516.4512393,1804
1750241516.4513183,2384
1750241516.4676435,3076
1750241516.4677243,3438
1750241516.4678078,3374
1750241516.5023487,3028
1750241516.5039191,2624
1750241516.5098119,2275
1750241516.530524,1973
1750241516.5306034,1722
1750241516.5306957,1770
1750241516.5511045,2261
1750241516.5569413,2950
1750241516.5583732,3381
1750241516.558535,3397
1750241516.5586107,3095
1750241516.5586843,2692
1750241516.5587587,2313
1750241516.558845,1989
1750241516.5589194,1707
1750241516.5593126,1687
1750241516.5593894,2120
1750241516.5738175,2832
1750241516.577939,3343
1750241516.5930324,3426
1750241516.5935798,3147
1750241516.5936618,2735
1750241516.5937397,2350
1750241516.5938172,2039
1750241516.5938942,1759
1750241516.5939713,1670
1750241516.594048,1997
1750241516.594125,2661
1750241516.5942016,3221
1750241516.594278,3393
1750241516.5943546,3193
1750241516.5944314,2807
1750241516.5945082,2403
1750241516.5945852,2065
1750241516.594662,1773
1750241516.5947385,1647
1750241516.5948145,1918
1750241516.5948906,2553
1750241516.5949674,3148
1750241516.6107745,3376
1750241516.6155667,3235
1750241516.6158848,2885
1750241516.6160698,2490
1750241516.6161845,2132
1750241516.6162987,1810
1750241516.6164298,1621
1750241516.6165452,1826
1750241516.6166584,2451
1750241516.6167722,3120
1750241516.6173573,3432
1750241516.6174638,3335
1750241516.6175773,2982
1750241516.6176903,2575
1750241516.6187923,2213
1750241516.6191556,1900
1750241516.619242,1671
1750241516.6193256,1774
1750241516.6194096,2302
1750241516.6194923,2965
1750241516.6195927,3342
1750241516.6196747,3333
1750241516.6197565,3040
1750241516.6198382,2654
1750241516.6199198,2274
1750241516.6200163,1936
1750241516.6200988,1665
1750241516.6201804,1703
1750241516.6202626,2193
1750241516.6203444,2902
1750241516.620442,3367
1750241516.6205246,3415
1750241516.6206064,3133
1750241516.6206887,2732
1750241516.620771,2346
1750241516.621372,2023
1750241516.6229143,1745
1750241516.6231065,1702
1750241516.6232781,2090
1750241516.6234505,2776
1750241516.6236725,3307
1750241516.6238441,3439
1750241516.624219,3208
1750241516.624427,2810
1750241516.6248903,2404
1750241516.6523445,2065
1750241516.662137,1773
1750241516.6624682,1671
1750241516.673416,1984
1750241516.6734939,2650
1750241516.6735656,3240
1750241516.6736348,3448
1750241516.673703,3276
1750241516.67377,2899
1750241516.6738389,2487
1750241516.6739116,2132
1750241516.673982,1827
1750241516.6740544,1675
1750241516.6741266,1915
1750241516.674202,2540
1750241516.674274,3164
1750241516.6743462,3435
1750241516.6744144,3324
1750241516.6744857,2974
1750241516.6745584,2560
1750241516.6746306,2180
1750241516.6747031,1845
1750241516.674775,1632
1750241516.6748466,1798
1750241516.674919,2392
1750241516.6749911,3073
1750241516.675084,3425
1750241516.6751518,3368
1750241516.6752183,3033
1750241516.6752853,2624
1750241516.675352,2252
1750241516.675424,1929
1750241516.6754956,1675
1750241516.6755679,1740
1750241516.6756396,2253
1750241516.6757114,2958
1750241516.6757836,3393
1750241516.6758556,3408
1750241516.6759279,3099
1750241516.6759996,2694
1750241516.6760714,2320
1750241516.676144,2000
1750241516.6762164,1716
1750241516.6762888,1693
1750241516.6763606,2126
1750241516.6764328,2838
1750241516.6765049,3349
1750241516.6765769,3435
1750241516.6766484,3165
1750241516.6767206,2762
1750241516.6767926,2375
1750241516.6768646,2052
1750241516.6769369,1761
1750241516.6770093,1679
1750241516.6770816,2026
1750241516.6771536,2694
1750241516.677225,3232
1750241516.6772976,3376
1750241516.6773696,3170
1750241516.6774418,2806
1750241516.6775138,2426
1750241516.6775858,2087
1750241516.6776578,1775
1750241516.6777294,1641
1750241516.6778011,1936
1750241516.6778738,2609
1750241516.6779456,3223
1750241516.6780176,3443
1750241516.6780891,3276
1750241516.6781688,2905
1750241516.6782413,2502
1750241516.6783135,2152
1750241516.6870942,1840
1750241516.6871758,1658
1750241516.68725,1855
1750241516.6873238,2451
1750241516.687397,3073
1750241516.6874692,3351
1750241516.6875443,3255
1750241516.6876166,2931
1750241516.6876893,2556
1750241516.6877608,2202
1750241516.6878333,1870
1750241516.6879058,1627
1750241516.6879897,1752
1750241516.688062,2333
1750241516.6881351,3039
1750241516.6882079,3414
1750241516.6882806,3362
1750241516.6883526,3028
1750241516.6899016,2636
1750241516.7657666,2285
1750241516.782822,1973
1750241516.7909236,1708
1750241516.7909977,1735
1750241516.7910671,2204
1750241516.791135,2882
1750241516.7912467,3308
1750241516.7913685,3333
1750241516.7914581,3057
1750241516.7915287,2683
1750241516.7916017,2312
1750241516.7916687,1970
1750241516.7917492,1665
1750241516.7918162,1630
1750241516.7918835,2059
1750241516.79195,2771
1750241516.792018,3284
1750241516.7920847,3372
1750241516.7921655,3124
1750241516.792233,2752
1750241516.7923,2381
1750241516.7923672,2046
1750241516.7924337,1728
1750241516.7925003,1611
1750241516.7925668,1947
1750241516.7926335,2654
1750241516.7927005,3259
1750241516.792771,3441
1750241516.792842,3229
1750241516.7929125,2833
1750241516.7929864,2443
1750241516.7930565,2120
1750241516.793127,1819
1750241516.793199,1641
1750241516.7935455,1852
1750241516.7940733,2473
1750241516.7955244,3111
1750241516.818815,3392
1750241516.8194025,3277
1750241516.8434765,2922
1750241516.8437674,2520
1750241516.8607075,2172
1750241516.8608522,1865
1750241516.8742137,1662
1750241516.8831573,1816
1750241516.8832483,2385
1750241516.8945603,3034
1750241516.958438,3359
1750241516.967425,3294
1750241516.9678395,2972
1750241516.968226,2585
1750241516.9686372,2220
1750241516.969039,1888
1750241516.9694295,1631
1750241516.96981,1714
1750241516.9701707,2257
1750241516.9705515,2974
1750241516.9709291,3397
1750241516.9713075,3386
1750241516.971685,3061
1750241516.9789436,2654
1750241516.9792883,2288
1750241516.979624,1983
1750241516.9799612,1716
1750241516.9802969,1702
1750241516.9806423,2123
1750241516.980986,2806
1750241516.9813273,3295
1750241517.0048149,3387
1750241517.023247,3138
1750241517.0483222,2751
1750241517.1036723,2365
1750241517.1059651,2037
1750241517.1071475,1745
1750241517.1076157,1671
1750241517.1079524,2034
1750241517.1082885,2725
1750241517.1086466,3288
1750241517.1089833,3440
1750241517.1093197,3216
1750241517.1096447,2820
1750241517.109983,2424
1750241517.1103067,2100
1750241517.1161554,1803
1750241517.1658528,1659
1750241517.1735973,1924
1750241517.1736796,2582
1750241517.1737554,3211
1750241517.17383,3454
1750241517.173901,3288
1750241517.1739745,2900
1750241517.1779244,2499
1750241517.1984875,2175
1750241517.224863,1880
1750241517.2257166,1682
1750241517.2265902,1852
1750241517.2516656,2455
1750241517.2520838,3125
1750241517.2524333,3445
1750241517.2527726,3340
1750241517.2531106,2969
1750241517.2534494,2563
1750241517.2537882,2224
1750241517.254117,1926
1750241517.2544553,1688
1750241517.2547932,1780
1750241517.255153,2326
1750241517.2554905,3029
1750241517.2980802,3429
1750241517.2981696,3392
1750241517.2982497,3045
1750241517.3052027,2626
1750241517.3052928,2266
1750241517.3053732,1966
1750241517.3054516,1709
1750241517.306322,1723
1750241517.3064053,2176
1750241517.330107,2860
1750241517.3352401,3319
1750241517.335319,3368
1750241517.335393,3086
1750241517.3354661,2688
1750241517.3355393,2309
1750241517.3356123,1992
1750241517.335686,1717
1750241517.3357594,1686
1750241517.335833,2097
1750241517.3359067,2801
1750241517.3359795,3327
1750241517.3360527,3432
1750241517.3361256,3172
1750241517.3361993,2765
1750241517.3362734,2373
1750241517.3363469,2058
1750241517.3364198,1774
1750241517.336493,1668
1750241517.3365655,1971
1750241517.3366387,2625
1750241517.336718,3200
1750241517.3367913,3396
1750241517.3368645,3216
1750241517.3369372,2841
1750241517.3370101,2438
1750241517.3370826,2089
1750241517.337156,1778
1750241517.3372293,1623
1750241517.3373034,1880
1750241517.337376,2540
1750241517.337438,3188
1750241517.3375049,3447
1750241517.337578,3294
1750241517.3376505,2909
1750241517.3377242,2503
1750241517.337797,2162
1750241517.3378713,1860
1750241517.337945,1646
1750241517.3380184,1784
1750241517.3380804,2352
1750241517.338144,3020
1750241517.3382175,3374
1750241517.33829,3324
1750241517.3384113,2988
1750241517.3385725,2574
1750241517.3386548,2199
1750241517.3387263,1883
1750241517.3387978,1653
1750241517.3388677,1749
1750241517.3389392,2271
1750241517.33901,2947
1750241517.339081,3340
1750241517.3391516,3332
1750241517.3392224,3032
1750241517.3392935,2642
1750241517.339364,2266
1750241517.339435,1936
1750241517.339506,1660
1750241517.3395765,1678
1750241517.3485873,2154
1750241517.3593638,2878
1750241517.3595126,3366
1750241517.3595867,3419
1750241517.3596604,3124
1750241517.3597338,2713
1750241517.4611104,2330
1750241517.4628646,2014
1750241517.4657927,1725
1750241517.4658735,1649
1750241517.4659474,2006
1750241517.4660225,2695
1750241517.4660964,3256
1750241517.4661703,3415
1750241517.466244,3199
1750241517.4663632,2809
1750241517.4664462,2411
1750241517.4665203,2071
1750241517.466594,1764
1750241517.4666674,1633
1750241517.466741,1929
1750241517.4668152,2605
1750241517.466924,3225
1750241517.466998,3448
1750241517.4670713,3277
1750241517.467145,2898
1750241517.4672184,2496
1750241517.4672928,2152
1750241517.4673667,1839
1750241517.4674401,1651
1750241517.4675138,1852
1750241517.4675884,2463
1750241517.4676619,3098
1750241517.4699104,3375
1750241517.469989,3264
1750241517.4705985,2932
1750241517.4737022,2561
1750241517.474158,2208
1750241517.4751408,1857
1750241517.4752247,1598
1750241517.4753072,1744
1750241517.4753878,2387
1750241517.4755077,3150
1750241517.475589,3536
1750241517.4756682,3445
1750241517.4757473,3065
1750241517.475826,2660
1750241517.4759283,2332
1750241517.4782252,2035
1750241517.4783037,1741
1750241517.4783857,1715
1750241517.478461,2152
1750241517.4785323,2841
1750241517.4786038,3304
1750241517.4786754,3353
1750241517.4787467,3069
1750241517.4788177,2676
1750241517.4788907,2304
1750241517.4789634,1980
1750241517.479036,1692
1750241517.4791102,1664
1750241517.479411,2100
1750241517.4794905,2826
1750241517.479565,3351
1750241517.4796383,3434
1750241517.4797125,3156
1750241517.4797885,2753
1750241517.4798653,2378
1750241517.4799428,2070
1750241517.4800198,1783
1750241517.480096,1680
1750241517.4801726,1998
1750241517.4802577,2659
1750241517.480334,3219
1750241517.4804106,3389
1750241517.4804878,3195
1750241517.4805646,2827
1750241517.48064,2438
1750241517.4807148,2097
1750241517.4807925,1787
1750241517.4808683,1644
1750241517.4809444,1918
1750241517.4810197,2580
1750241517.481095,3209
1750241517.481171,3449
1750241517.481247,3294
1750241517.4813251,2919
1750241517.4814007,2513
1750241517.4814768,2163
1750241517.481554,1851
1750241517.4816303,1650
1750241517.481725,1822
1750241517.5511038,2422
1750241517.5512192,3099
1750241517.551326,3435
1750241517.5514314,3357
1750241517.551536,3006
1750241517.551642,2600
1750241517.551758,2241
1750241517.5518637,1923
1750241517.5526178,1670
1750241517.5527294,1745
1750241517.5529637,2275
1750241517.5530703,2981
1750241517.5990307,3400
1750241517.6119504,3390
1750241517.612036,3063
1750241517.6121116,2651
1750241517.612186,2283
1750241517.6122603,1973
1750241517.6123328,1703
1750241517.612406,1701
1750241517.6124792,2143
1750241517.6125524,2834
1750241517.6126227,3313
1750241517.6126838,3382
1750241517.6127536,3112
1750241517.6128268,2716
1750241517.6129014,2327
1750241517.6129766,1994
1750241517.6130505,1700
1750241517.613124,1646
1750241517.6131966,2044
1750241517.6132758,2757
1750241517.6133494,3311
1750241517.6134224,3437
1750241517.6134953,3190
1750241517.613568,2787
1750241517.6136413,2396
1750241517.6137145,2074
1750241517.6137874,1779
1750241517.6138604,1647
1750241517.6139417,1925
1750241517.6140144,2577
1750241517.6140873,3177
1750241517.6141603,3400
1750241517.614233,3237
1750241517.6143057,2860
1750241517.614379,2450
1750241517.6144521,2100
1750241517.6145258,1798
1750241517.614598,1634
1750241517.614671,1854
1750241517.6147437,2465
1750241517.6148167,3094
1750241517.6148891,3374
1750241517.6149557,3268
1750241517.6150439,2919
1750241517.615121,2510
1750241517.6151943,2145
1750241517.6152673,1829
1750241517.6153402,1613
1750241517.615608,1748
1750241517.6156805,2311
1750241517.6158814,2991
1750241517.61596,3368
1750241517.6160338,3341
1750241517.6161072,3022
1750241517.6161802,2618
1750241517.6162534,2246
1750241517.6163263,1929
1750241517.6163995,1678
1750241517.6164725,1733
1750241517.6165447,2233
1750241517.616618,2932
1750241517.6166906,3365
1750241517.6167629,3372
1750241517.6168358,3056
1750241517.6169086,2652
1750241517.6169796,2293
1750241517.6170523,1994
1750241517.617125,1720
1750241517.6171978,1678
1750241517.6172712,2079
1750241517.6173449,2775
1750241517.61742,3301
1750241517.6174943,3418
1750241517.6175685,3172
1750241517.6176412,2775
1750241517.6177135,2382
1750241517.6177862,2053
1750241517.617867,1762
1750241517.6179395,1675
1750241517.6180122,2016
1750241517.6180854,2696
1750241517.618158,3264
1750241517.6182306,3430
1750241517.6183033,3223
1750241517.6183915,2836
1750241517.618466,2438
1750241517.6185384,2103
1750241517.6186116,1808
1750241517.6186845,1666
1750241517.6187575,1918
1750241517.618831,2539
1750241517.618904,3130
1750241517.618977,3364
1750241517.6190505,3234
1750241517.6191235,2892
1750241517.6191967,2499
1750241517.6192696,2136
1750241517.6193433,1813
1750241517.6194165,1626
1750241517.6194916,1826
1750241517.6195645,2427
1750241517.6196375,3061
1750241517.6197102,3350
1750241517.6197898,3265
1750241517.6198628,2947
1750241517.6199355,2564
1750241517.6200078,2192
1750241517.620081,1856
1750241517.676372,1622
1750241517.733254,1747
1750241517.7476335,2303
1750241517.7477777,2976
1750241517.747987,3333
1750241517.7480943,3294
1750241517.7481995,2986
1750241517.7483053,2605
1750241517.7497456,2240
1750241517.7554748,1910
1750241517.7555828,1633
1750241517.7663364,1652
1750241517.7664533,2123
1750241517.767684,2829
1750241517.7678375,3302
1750241517.7752368,3365
1750241517.7773113,3094
1750241517.777464,2699
1750241517.7776108,2316
1750241517.7777584,1991
1750241517.7779052,1708
1750241517.7780528,1654
1750241517.778199,2031
1750241517.7783456,2710
1750241517.778542,3240
1750241517.7786908,3378
1750241517.778838,3163
1750241517.7789905,2782
1750241517.779151,2388
1750241517.7792976,2054
1750241517.790879,1764
1750241517.7910264,1659
1750241517.7922077,1962
1750241517.792318,2607
1750241517.7924247,3174
1750241517.7925296,3369
1750241517.7926354,3207
1750241517.7927403,2853
1750241517.7928603,2458
1750241517.792965,2104
1750241517.79307,1789
1750241517.7931747,1628
1750241517.7932796,1868
1750241517.7933846,2509
1750241517.8236291,3157
1750241517.8262708,3444
1750241517.8263512,3333
1750241517.8264248,2970
1750241517.8264997,2552
1750241517.8442068,2193
1750241517.8446155,1894
1750241517.8567255,1693
1750241517.8902807,1815
1750241517.8921034,2332
1750241517.892239,2959
1750241517.893467,3314
1750241517.8935766,3304
1750241517.8939455,3009
1750241517.8971276,2605
1750241517.8975265,2211
1750241517.8976707,1880
1750241517.8977768,1648
1750241517.897883,1743
1750241517.8979876,2269
1750241517.898092,2966
1750241517.9045694,3390
1750241517.9046571,3400
1750241517.90474,3093
1750241517.9048262,2685
1750241517.9048975,2304
1750241517.9049757,1989
1750241517.9050698,1718
1750241517.9051507,1693
1750241517.9054935,2093
1750241517.9055765,2766
1750241517.905659,3266
1750241517.9057388,3378
1750241517.9058194,3145
1750241517.905901,2758
1750241517.9059825,2361
1750241517.908694,2022
1750241517.908777,1729
1750241517.9088576,1653
1750241517.908937,2012
1750241517.9090414,2706
1750241517.9135108,3282
1750241517.9135911,3451
1750241517.9136643,3237
1750241517.9137363,2842
1750241517.913808,2441
1750241517.9138806,2113
1750241517.9139524,1818
1750241517.914022,1669
1750241517.914083,1921
1750241517.9141543,2567
1750241517.9142253,3196
1750241517.9142962,3451
1750241517.9143672,3302
1750241517.914439,2922
1750241517.91451,2510
1750241517.9145818,2161
1750241517.9146535,1850
1750241517.9147253,1650
1750241517.9147966,1828
1750241517.9148686,2437
1750241517.9149399,3115
1750241517.915012,3441
1750241517.9150965,3344
1750241517.9151685,2979
1750241517.9152403,2566
1750241517.934363,2209
1750241517.9443626,1898
1750241517.944503,1656
1750241517.9446294,1743
1750241517.9447348,2271
1750241517.9448404,2957
1750241517.9449453,3358
1750241517.945066,3351
1750241517.9451714,3042
1750241517.9452763,2637
1750241517.9454615,2256
1750241517.9455662,1931
1750241517.94567,1673
1750241517.945774,1711
1750241517.9458785,2185
1750241517.9459827,2866
1750241517.9461803,3307
1750241517.9462843,3346
1750241517.946388,3080
1750241517.9464917,2708
1750241517.9465954,2333
1750241517.9466994,1989
1750241517.9468026,1680
1750241517.946906,1631
1750241517.94701,2051
1750241517.947114,2780
1750241517.9472175,3324
1750241517.9475372,3431
1750241517.9476619,3172
1750241517.9477673,2775
1750241517.9478734,2393
1750241517.947979,2074
1750241517.9480898,1779
1750241517.9481947,1662
1750241517.9483004,1966
1750241517.9484117,2627
1750241517.9485168,3204
1750241517.9486213,3390
1750241517.9487598,3209
1750241517.9488657,2845
1750241517.9489694,2458
1750241517.9490845,2113
1750241517.9491885,1787
1750241517.9492724,1607
1750241517.9493437,1847
1750241517.9494095,2511
1750241517.949472,3181
1750241517.949543,3462
1750241517.9496133,3324
1750241517.9496837,2950
1750241517.9497545,2551
1750241517.949825,2209
1750241517.9498956,1896
1750241517.9499674,1664
1750241517.950037,1790
1750241517.9500973,2368
1750241517.9501684,3061
1750241517.9502413,3427
1750241517.9503138,3367
1750241517.9503865,3018
1750241517.9504583,2609
1750241517.950531,2251
1750241517.9506044,1945
1750241517.9506779,1699
1750241517.9507504,1758
1750241517.950823,2252
1750241517.950895,2925
1750241517.9509673,3333
1750241517.9510398,3342
1750241517.9511118,3059
1750241517.9511838,2682
1750241517.951256,2312
1750241517.9513285,1977
1750241517.9514008,1685
1750241517.954404,1677
1750241517.9544845,2132
1750241517.9545586,2853
1750241517.9546323,3358
1750241517.9547088,3432
1750241517.954782,3158
1750241517.954855,2761
1750241517.954928,2384
1750241517.9550006,2070
1750241517.955086,1778
1750241517.9551592,1684
1750241517.9552317,2023
1750241517.9553058,2706
1750241517.9553785,3275
1750241517.9554515,3436
1750241517.9555244,3215
1750241517.9555967,2824
1750241517.955669,2443
1750241517.9557416,2133
1750241517.955814,1836
1750241517.9679008,1673
1750241517.9684856,1919
1750241517.9685645,2577
1750241517.9686394,3220
1750241517.9687135,3471
1750241517.9687874,3303
1750241517.968861,2917
1750241517.9689348,2530
1750241517.969008,2222
1750241517.9690824,1930
1750241517.9691556,1713
1750241517.9692287,1859
1750241517.9693024,2447
1750241517.9693754,3114
1750241518.0423079,3424
1750241518.1379886,3299
1750241518.1989944,2916
1750241518.2573433,2519
1750241518.2592318,2206
1750241518.2916842,1933
1750241518.2944953,1711
1750241518.3142939,1817
1750241518.3144066,2387
1750241518.314513,3119
1750241518.3211925,3534
1750241518.3213058,3493
1750241518.3214145,3133
1750241518.3215208,2702
1750241518.3216412,2325
1750241518.3217647,2002
1750241518.3218706,1716
1750241518.3219764,1709
1750241518.322082,2151
1750241518.3256564,2830
1750241518.3257627,3284
1750241518.3258717,3335
1750241518.325983,3066
1750241518.3260877,2686
1750241518.3261921,2315
1750241518.3262959,1986
1750241518.3264012,1698
1750241518.3265102,1663
1750241518.3266137,2082
1750241518.326718,2796
1750241518.3268228,3330
1750241518.3269277,3439
1750241518.3270316,3189
1750241518.3271346,2793
1750241518.3272388,2405
1750241518.3273423,2084
1750241518.3274534,1792
1750241518.3275697,1679
1750241518.3276734,1976
1750241518.3277776,2621
1750241518.3278823,3183
1750241518.327986,3369
1750241518.3289576,3196
1750241518.3290703,2838
1750241518.329176,2453
1750241518.3292813,2108
1750241518.3293858,1788
1750241518.3325822,1616
1750241518.3326967,1859
1750241518.3328025,2516
1750241518.332908,3172
1750241518.3330133,3444
1750241518.3331196,3303
1750241518.3332255,2926
1750241518.3333304,2520
1750241518.3334486,2178
1750241518.3335536,1877
1750241518.3386261,1662
1750241518.3387392,1789
1750241518.3388453,2343
1750241518.33895,3006
1750241518.339055,3363
1750241518.3391597,3322
1750241518.3392644,2995
1750241518.3393934,2586
1750241518.339499,2217
1750241518.3396044,1908
1750241518.3397093,1678
1750241518.3398135,1757
1750241518.3399186,2257
1750241518.340024,2921
1750241518.3401313,3321
1750241518.3402355,3332
1750241518.3403401,3050
1750241518.3404446,2673
1750241518.3405507,2306
1750241518.3406549,1986
1750241518.3409429,1717
1750241518.3410473,1728
1750241518.3411515,2194
1750241518.341256,2920
1750241518.341378,3425
1750241518.342846,3496
1750241518.3457994,3205
1750241518.345915,2784
1750241518.3460221,2388
1750241518.3461285,2068
1750241518.3462338,1787
1750241518.3463402,1709
1750241518.3464458,2051
1750241518.346551,2721
1750241518.3466566,3277
1750241518.3467634,3448
1750241518.346869,3248
1750241518.346974,2862
1750241518.3470786,2452
1750241518.3471992,2101
1750241518.3473043,1794
1750241518.3474097,1663
1750241518.3475144,1944
1750241518.3476193,2598
1750241518.3477132,3210
1750241518.3477852,3449
1750241518.3478565,3302
1750241518.3479285,2933
1750241518.3479998,2519
1750241518.3480713,2158
1750241518.3481429,1847
1750241518.3482146,1669
1750241518.3482866,1867
1750241518.3483708,2469
1750241518.3484454,3111
1750241518.3485174,3416
1750241518.3485887,3329
1750241518.3486602,2986
1750241518.3487325,2580
1750241518.348804,2216
1750241518.3488755,1900
1750241518.3489473,1672
1750241518.349019,1786
1750241518.3490906,2336
1750241518.349171,3025
1750241518.3492422,3411
1750241518.3493142,3378
1750241518.3493855,3041
1750241518.3494573,2625
1750241518.3495286,2256
1750241518.3495998,1947
1750241518.3496711,1691
1750241518.3497424,1722
1750241518.3498137,2203
1750241518.349885,2916
1750241518.349956,3390
1750241518.3500273,3433
1750241518.3500988,3129
1750241518.3501701,2713
1750241518.3502412,2332
1750241518.3503134,2017
1750241518.3503847,1733
1750241518.350456,1681
1750241518.350527,2079
1750241518.350598,2791
1750241518.3506691,3340
1750241518.3507397,3461
1750241518.3508108,3200
1750241518.3508825,2785
1750241518.351744,2390
1750241518.374391,2069
1750241518.4494188,1775
1750241518.4495316,1661
1750241518.449643,1975
1750241518.4498253,2663
1750241518.449911,3274
1750241518.4499955,3479
1750241518.4500802,3281
1750241518.4501643,2880
1750241518.4502482,2470
1750241518.4503317,2134
1750241518.4504158,1833
1750241518.4505012,1668
1750241518.450585,1897
1750241518.4506693,2534
1750241518.4507532,3179
1750241518.4839752,3458
1750241518.5123162,3331
1750241518.54598,2960
1750241518.5461934,2550
1750241518.5462992,2199
1750241518.5464034,1890
1750241518.5465074,1681
1750241518.5466104,1831
1750241518.5467143,2409
1750241518.549794,3077
1750241518.5499172,3419
1750241518.5501232,3352
1750241518.550229,3012
1750241518.5503335,2608
1750241518.550438,2245
1750241518.550542,1926
1750241518.5506468,1677
1750241518.5507503,1755
1750241518.5508544,2285
1750241518.5509582,2990
1750241518.5510628,3408
1750241518.5511663,3401
1750241518.5512702,3083
1750241518.551373,2681
1750241518.5514765,2314
1750241518.55158,2000
1750241518.551672,1729
1750241518.5517552,1730
1750241518.5518217,2179
1750241518.5518892,2881
1750241518.5519571,3363
1750241518.5520246,3426
1750241518.5520937,3149
1750241518.552161,2751
1750241518.5522282,2368
1750241518.5522954,2042
1750241518.5523624,1750
1750241518.5524306,1679
1750241518.5524979,2047
1750241518.5525668,2738
1750241518.5526335,3294
1750241518.552701,3446
1750241518.5527682,3231
1750241518.5689137,2845
1750241518.5689967,2445
1750241518.569071,2106
1750241518.5691452,1808
1750241518.5692198,1684
1750241518.5692928,1971
1750241518.5693676,2623
1750241518.5694337,3220
1750241518.5695,3442
1750241518.5695727,3285
1750241518.569646,2915
1750241518.5697186,2505
1750241518.5697916,2146
1750241518.5698638,1828
1750241518.5699363,1647
1750241518.570009,1855
1750241518.570071,2475
1750241518.5701437,3128
1750241518.570217,3426
1750241518.5702896,3319
1750241518.570362,2965
1750241518.570435,2568
1750241518.5705078,2221
1750241518.5705802,1910
1750241518.6078959,1677
1750241518.6557832,1788
1750241518.6561744,2344
1750241518.6565113,3035
1750241518.6927671,3415
1750241518.692915,3373
1750241518.6940398,3035
1750241518.6941755,2628
1750241518.6943443,2265
1750241518.695312,1956
1750241518.6954267,1705
1750241518.6955376,1749
1750241518.6956482,2227
1750241518.695759,2900
1750241518.6991138,3322
1750241518.699278,3348
1750241518.6994052,3074
1750241518.699515,2696
1750241518.7001565,2319
1750241518.7002704,1983
1750241518.7005415,1698
1750241518.7006533,1685
1750241518.7007635,2122
1750241518.7008724,2829
1750241518.700979,3339
1750241518.7010908,3438
1750241518.7011957,3195
1750241518.7013006,2811
1750241518.7014062,2422
1750241518.701511,2088
1750241518.7016158,1790
1750241518.7017329,1698
1750241518.7018375,2041
1750241518.7019422,2732
1750241518.7020483,3314
1750241518.702153,3483
1750241518.7022576,3264
1750241518.7023625,2862
1750241518.7024677,2466
1750241518.702572,2148
1750241518.7026765,1854
1750241518.702781,1683
1750241518.7028856,1902
1750241518.70299,2535
1750241518.7031012,3183
1750241518.703206,3465
1750241518.7033103,3331
1750241518.7034152,2949
1750241518.7035196,2536
1750241518.7036238,2192
1750241518.7037277,1888
1750241518.708719,1676
1750241518.7088397,1823
1750241518.7089632,2404
1750241518.7090688,3079
1750241518.7091737,3425
1750241518.7092788,3352
1750241518.7126162,3000
1750241518.7127287,2586
1750241518.7128832,2224
1750241518.7133331,1918
1750241518.7136722,1685
1750241518.7138016,1769
1750241518.7139108,2279
1750241518.7140164,2948
1750241518.7141228,3344
1750241518.7142298,3346
1750241518.7143357,3052
1750241518.7144415,2656
1750241518.7145474,2271
1750241518.714654,1938
1750241518.7147598,1676
1750241518.7148721,1711
1750241518.7149796,2187
1750241518.7151206,2890
1750241518.7152276,3363
1750241518.7153337,3428
1750241518.7154388,3163
1750241518.715544,2766
1750241518.7156506,2369
1750241518.7307642,2030
1750241518.731484,1739
1750241518.731601,1683
1750241518.731733,2058
1750241518.731841,2741
1750241518.7319481,3282
1750241518.732054,3430
1750241518.735633,3217
1750241518.7357435,2831
1750241518.7358491,2432
1750241518.7359567,2098
1750241518.736064,1809
1750241518.7361698,1698
1750241518.736275,1990
1750241518.7363806,2637
1750241518.736511,3222
1750241518.7366178,3436
1750241518.7367241,3273
1750241518.7368314,2899
1750241518.7369363,2486
1750241518.737043,2128
1750241518.737149,1821
1750241518.7372553,1660
1750241518.7373605,1886
1750241518.737469,2507
1750241518.7375767,3147
1750241518.737685,3438
1750241518.7377899,3337
1750241518.7378955,2984
1750241518.7380018,2569
1750241518.7381074,2198
1750241518.7382195,1882
1750241518.7383273,1674
1750241518.7384496,1815
1750241518.7385588,2375
1750241518.7386646,3045
1750241518.7387722,3411
1750241518.7388825,3379
1750241518.7389922,3056
1750241518.739097,2644
1750241518.7392018,2262
1750241518.7393062,1935
1750241518.739411,1682
1750241518.7482996,1736
1750241518.7728698,2231
1750241518.7795086,2931
1750241518.7831235,3380
1750241518.803213,3415
1750241518.803362,3117
1750241518.8034685,2705
1750241518.8035746,2319
1750241518.8037224,1997
1750241518.803828,1718
1750241518.8039334,1687
1750241518.8040388,2100
1750241518.8160825,2805
1750241518.8287241,3331
1750241518.8288484,3436
1750241518.829014,3173
1750241518.8410008,2766
1750241518.842603,2378
1750241518.8427162,2061
1750241518.8428802,1769
1750241518.8430016,1665
1750241518.843103,1994
1750241518.8432038,2686
1750241518.8935332,3280
1750241518.9078026,3461
1750241518.9252684,3245
1750241518.9256635,2847
1750241518.9257724,2455
1750241518.9258783,2135
1750241518.9370952,1832
1750241518.9371846,1661
1750241518.9417446,1900
1750241518.9427118,2559
1750241518.9428205,3219
1750241518.9431975,3489
1750241518.9461424,3331
1750241518.9462242,2932
1750241518.9463015,2516
1750241518.9463787,2176
1750241518.9464557,1878
1750241518.9465337,1674
1750241518.9466107,1830
1750241518.9466872,2418
1750241518.9467635,3090
1750241518.946847,3428
1750241518.9469235,3350
1750241518.947,2997
1750241518.947077,2583
1750241518.9471533,2223
1750241518.9472306,1916
1750241518.9473064,1689
1750241518.9473822,1783
1750241518.9474583,2302
1750241518.9475346,2965
1750241518.947611,3342
1750241518.9476874,3324
1750241518.9477637,3022
1750241518.9478395,2636
1750241518.9479156,2265
1750241518.9479916,1931
1750241518.9480689,1653
1750241518.9481454,1679
1750241518.9482214,2169
1750241518.948298,2894
1750241518.9483964,3372
1750241518.948474,3414
1750241518.94855,3115
1750241518.9486253,2706
1750241518.9487004,2327
1750241518.9487767,2013
1750241518.9488525,1733
1750241518.9489284,1674
1750241518.9490037,2043
1750241518.9490798,2717
1750241518.949156,3248
1750241518.9492316,3388
1750241518.9493077,3172
1750241518.9493802,2790
1750241518.9494429,2389
1750241518.9495187,2043
1750241518.9495952,1745
1750241518.9497795,1642
1750241518.9498904,1952
1750241518.950422,2600
1750241518.9596605,3167
1750241518.960389,3363
1750241518.962158,3209
1750241518.9634311,2857
1750241518.964524,2451
1750241518.9806995,2077
1750241518.9926598,1754
1750241519.0197737,1604
1750241519.047981,1860
1750241519.0498002,2493
1750241519.0888498,3108
1750241519.0889418,3364
1750241519.0890248,3252
1750241519.08937,2921
1750241519.1037407,2532
1750241519.1038268,2165
1750241519.1039078,1832
1750241519.1042483,1615
1750241519.1658573,1777
1750241519.184739,2377
1750241519.1848588,3070
1750241519.1849341,3428
1750241519.1850083,3369
1750241519.1850889,3030
1750241519.2754047,2625
1750241519.275999,2262
1750241519.2762043,1947
1750241519.2788205,1689
1750241519.2789364,1739
1750241519.2790403,2241
1750241519.279136,2950
1750241519.3084996,3396
1750241519.3086526,3419
1750241519.3087964,3112
1750241519.308969,2704
1750241519.30911,2329
1750241519.3092518,2013
1750241519.3093934,1728
1750241519.3095336,1696
1750241519.3096738,2116
1750241519.3098145,2827
1750241519.3099551,3351
1750241519.3100953,3448
1750241519.3102365,3179
1750241519.3103774,2774
1750241519.3105223,2390
1750241519.3106632,2072
1750241519.310804,1773
1750241519.3264432,1667
1750241519.3390155,2002
1750241519.339553,2698
1750241519.3396375,3288
1750241519.3516665,3454
1750241519.3535678,3221
1750241519.3539004,2813
1750241519.3539925,2422
1750241519.3568795,2105
1750241519.356962,1810
1750241519.357042,1657
1750241519.3571236,1917
1750241519.3572035,2583
1750241519.3572812,3225
1750241519.35736,3469
1750241519.3574383,3300
1750241519.3575158,2910
1750241519.3575947,2504
1750241519.3576832,2163
1750241519.357763,1854
1750241519.3579495,1654
1750241519.35817,1832
1750241519.3582416,2429
1750241519.3583128,3079
1750241519.3584049,3379
1750241519.3584683,3281
1750241519.3585305,2941
1750241519.3586087,2552
1750241519.3586771,2191
1750241519.358745,1859
1750241519.3588133,1613
1750241519.358881,1732
1750241519.358949,2311
1750241519.3590162,3030
1750241519.3591003,3429
1750241519.3591683,3395
1750241519.359236,3061
1750241519.3593032,2651
1750241519.3593707,2273
1750241519.359438,1946
1750241519.3607843,1679
1750241519.378341,1707
1750241519.39663,2177
1750241519.4304256,2861
1750241519.4346383,3302
1750241519.4347186,3345
1750241519.4347954,3079
1750241519.4350407,2699
1750241519.4351208,2313
1750241519.4351964,1967
1750241519.4352725,1670
1750241519.435366,1639
1750241519.4354415,2059
1750241519.4355159,2760
1750241519.435591,3274
1750241519.4356654,3377
1750241519.4357715,3144
1750241519.4358478,2771
1750241519.4359226,2387
1750241519.4359977,2040
1750241519.4360733,1720
1750241519.436148,1607
1750241519.4366984,1945
1750241519.436775,2653
1750241519.4368505,3267
1750241519.4369264,3467
1750241519.4370015,3265
1750241519.451482,2867
1750241519.4558508,2463
1750241519.4626887,2126
1750241519.462777,1821
1750241519.46286,1647
1750241519.4629421,1867
1750241519.4630249,2502
1750241519.463107,3156
1750241519.4631886,3446
1750241519.4632714,3328
1750241519.4633536,2958
1750241519.4634364,2542
1750241519.463518,2180
1750241519.4635997,1867
1750241519.4636812,1660
1750241519.4637628,1808
1750241519.4638505,2370
1750241519.4639215,3021
1750241519.4640033,3358
1750241519.4640856,3310
1750241519.4641676,2997
1750241519.4642498,2599
1750241519.46433,2213
1750241519.4697335,1871
1750241519.4698138,1625
1750241519.4706156,1731
1750241519.4706986,2287
1750241519.4707735,3003
1750241519.4708486,3419
1750241519.4709215,3408
1750241519.4709952,3089
1750241519.4710684,2683
1750241519.4711487,2299
1750241519.4712222,1960
1750241519.4712956,1666
1750241519.471369,1654
1750241519.4714422,2111
1750241519.471516,2847
1750241519.4715889,3368
1750241519.4716616,3452
1750241519.4717479,3170
1750241519.4718213,2756
1750241519.4718945,2367
1750241519.4719682,2044
1750241519.4720414,1743
1750241519.4721155,1642
1750241519.472189,1977
1750241519.4722624,2658
1750241519.4723358,3226
1750241519.4724095,3392
1750241519.472483,3182
1750241519.4725564,2800
1750241519.4726298,2414
1750241519.4727027,2083
1750241519.472776,1773
1750241519.4728494,1623
1750241519.4729226,1900
1750241519.4729962,2580
1750241519.4730697,3222
1750241519.4731436,3460
1750241519.4732165,3279
1750241519.47329,2877
1750241519.4733627,2466
1750241519.4734364,2133
1750241519.4735312,1837
1750241519.4736047,1643
1750241519.4736824,1813
1750241519.4737554,2404
1750241519.4738283,3061
1750241519.4739013,3390
1750241519.473974,3316
1750241519.475251,2969
1750241519.4753394,2550
1750241519.4754133,2176
1750241519.4764712,1865
1750241519.4765456,1659
1750241519.4766176,1793
1750241519.4766905,2336
1750241519.4767625,2989
1750241519.4768355,3343
1750241519.476908,3311
1750241519.476981,3007
1750241519.4770536,2615
1750241519.4771264,2231
1750241519.477199,1890
1750241519.4772716,1629
1750241519.4773443,1693
1750241519.477417,2211
1750241519.4774895,2932
1750241519.477562,3388
1750241519.4776416,3419
1750241519.4778233,3120
1750241519.4778972,2710
1750241519.4779737,2319
1750241519.4780467,1991
1750241519.4781191,1711
1750241519.4781916,1676
1750241519.478421,2074
1750241519.478496,2754
1750241519.4785697,3263
1750241519.4786434,3377
1750241519.4787169,3148
1750241519.4788089,2770
1750241519.4788811,2381
1750241519.479617,2037
1750241519.4796934,1727
1750241519.479768,1624
1750241519.4798417,1965
1750241519.4799163,2666
1750241519.479989,3268
1750241519.4800622,3457
1750241519.4801347,3253
1750241519.4802082,2857
1750241519.4802814,2452
1750241519.4803543,2117
1750241519.4804268,1818
1750241519.4805,1656
1750241519.480573,1879
1750241519.4806466,2494
1750241519.4807198,3114
1750241519.4807928,3387
1750241519.4808655,3277
1750241519.4809391,2929
1750241519.4810126,2522
1750241519.4810855,2158
1750241519.4811587,1842
1750241519.481232,1647
1750241519.4813066,1823
1750241519.4813807,2419
1750241519.4814472,3089
1750241519.4815154,3426
1750241519.4815843,3356
1750241519.481657,3013
1750241519.481761,2600
1750241519.4818342,2230
1750241519.481907,1914
1750241519.48198,1675
1750241519.5266192,1759
1750241519.5956235,2282
1750241519.7100608,2979
1750241519.7134268,3399
1750241519.7138734,3402
1750241519.7142296,3089
1750241519.714579,2682
1750241519.7149212,2308
1750241519.715306,1990
1750241519.7156436,1711
1750241519.715984,1699
1750241519.7163236,2142
1750241519.7167883,2858
1750241519.7171772,3365
1750241519.7177892,3442
1750241519.71813,3156
1750241519.725491,2741
1750241519.7255788,2355
1750241519.7264574,2041
1750241519.7265399,1753
1750241519.726616,1673
1750241519.7266917,2034
1750241519.7273462,2736
1750241519.7274253,3309
1750241519.7275589,3462
1750241519.7277248,3224
1750241519.728526,2818
1750241519.749899,2422
1750241519.7615526,2101
1750241519.7621577,1800
1750241519.7622395,1656
1750241519.7623196,1931
1750241519.7624,2604
1750241519.7624788,3237
1750241519.7625582,3471
1750241519.7626371,3294
1750241519.7627172,2906
1750241519.762796,2507
1750241519.7628741,2171
1750241519.762952,1857
1750241519.7630305,1654
1750241519.763108,1844
1750241519.763186,2470
1750241519.763264,3142
1750241519.7633421,3443
1750241519.763424,3320
1750241519.7635026,2947
1750241519.7635806,2541
1750241519.7636588,2199
1750241519.7637367,1896
1750241519.7638152,1673
1750241519.763893,1796
1750241519.763971,2352
1750241519.7640502,3022
1750241519.7641284,3373
1750241519.7642076,3320
1750241519.764286,3001
1750241519.76457,2617
1750241519.7646544,2256
1750241519.7647214,1916
1750241519.7647882,1631
1750241519.7648697,1676
1750241519.764948,2203
1750241519.7650263,2946
1750241519.7651224,3408
1750241519.7652006,3416
1750241519.7652793,3093
1750241519.7653584,2684
1750241519.7654274,2320
1750241519.7655084,2009
1750241519.765587,1720
1750241519.7656665,1674
1750241519.7657552,2088
1750241519.7658367,2807
1750241519.7659187,3341
1750241519.7659972,3441
1750241519.7660582,3171
1750241519.7661388,2766
1750241519.766219,2387
1750241519.7662988,2078
1750241519.7663774,1785
1750241519.7664578,1669
1750241519.7665381,1975
1750241519.7666264,2637
1750241519.7667074,3216
1750241519.7667882,3407
1750241519.7668674,3222
1750241519.7669473,2847
1750241519.7670279,2447
1750241519.7671082,2102
1750241519.7671864,1792
1750241519.7672653,1640
1750241519.7673457,1898
1750241519.767426,2553
1750241519.7675066,3191
1750241519.7675853,3446
1750241519.767665,3300
1750241519.7677448,2928
1750241519.767825,2527
1750241519.7679045,2184
1750241519.7679834,1878
1750241519.768063,1670
1750241519.7681422,1827
1750241519.7682219,2415
1750241519.7683024,3087
1750241519.783349,3423
1750241519.7869415,3343
1750241519.7872756,2988
1750241519.8395345,2576
1750241519.8556914,2223
1750241519.8558717,1920
1750241519.9063406,1682
1750241519.9142334,1756
1750241519.9143214,2264
1750241519.9144013,2941
1750241519.9144804,3344
1750241519.9145586,3339
1750241519.914637,3033
1750241519.9147143,2635
1750241519.9147925,2261
1750241519.91487,1937
1750241519.9149473,1665
1750241519.915025,1683
1750241519.915117,2159
1750241519.9151955,2882
1750241519.9152744,3370
1750241519.9153528,3422
1750241519.915431,3126
1750241519.915509,2716
1750241519.9155877,2338
1750241519.9156659,2030
1750241519.9157443,1750
1750241519.9158223,1681
1750241519.9159005,2038
1750241519.9159782,2712
1750241519.9160578,3253
1750241519.9161363,3401
1750241519.9162138,3185
1750241519.9162915,2800
1750241519.9200356,2404
1750241519.9371562,2062
1750241520.0096436,1758
1750241520.0587673,1640
1750241520.05888,1949
1750241520.0589578,2627
1750241520.059035,3235
1750241520.0591114,3443
1750241520.0591862,3262
1750241520.059261,2875
1750241520.059337,2464
1750241520.0594127,2115
1750241520.0594883,1813
1750241520.0595708,1649
1750241520.059645,1869
1750241520.0597205,2480
1750241520.0597959,3103
1750241520.0598722,3379
1750241520.059948,3281
1750241520.0600235,2951
1750241520.0600994,2561
1750241520.0601747,2197
1750241520.0602503,1865
1750241520.0603256,1640
1750241520.0604012,1786
1750241520.0604775,2370
1750241520.0605538,3056
1750241520.0606296,3418
1750241520.060705,3367
1750241520.0607805,3034
1750241520.0608563,2629
1750241520.060932,2260
1750241520.061007,1939
1750241520.061082,1679
1750241520.0611572,1728
1750241520.0612326,2227
1750241520.061308,2934
1750241520.0613768,3382
1750241520.0614421,3407
1750241520.0615194,3101
1750241520.061595,2697
1750241520.0616698,2328
1750241520.061758,2020
1750241520.0618327,1740
1750241520.0619066,1700
1750241520.0619802,2109
1750241520.062043,2815
1750241520.0621135,3343
1750241520.062189,3447
1750241520.0622592,3180
1750241520.0623305,2770
1750241520.062403,2382
1750241520.0624793,2068
1750241520.0625546,1783
1750241520.0626192,1687
1750241520.106714,2016
1750241520.1067984,2697
1750241520.1068752,3282
1750241520.1069565,3465
1750241520.107033,3262
1750241520.1071074,2867
1750241520.1071842,2461
1750241520.1072638,2126
1750241520.1073415,1830
1750241520.1074204,1683
1750241520.1075006,1933
1750241520.1075737,2570
1750241520.107647,3193
1750241520.1077225,3446
1750241520.1077976,3303
1750241520.1078768,2926
1750241520.1079473,2510
1750241520.1080282,2150
1750241520.1081057,1837
1750241520.1081808,1642
1750241520.1082547,1824
1750241520.1083324,2430
1750241520.1084125,3102
1750241520.1084807,3430
1750241520.1085553,3343
1750241520.108635,2986
1750241520.1087067,2573
1750241520.1087856,2211
1750241520.1088557,1901
1750241520.1089342,1671
1750241520.1090064,1767
1750241520.109079,2290
1750241520.1091506,2958
1750241520.1092231,3342
1750241520.1092954,3332
1750241520.1093647,3034
1750241520.1094265,2637
1750241520.1094983,2245
1750241520.1095707,1898
1750241520.109643,1630
1750241520.1097155,1679
1750241520.1097877,2176
1750241520.1098602,2875
1750241520.109933,3318
1750241520.1100001,3351
1750241520.1100667,3079
1750241520.1101387,2701
1750241520.1102111,2322
1750241520.110283,1979
1750241520.1103559,1674
1750241520.1104279,1628
1750241520.1105,2047
1750241520.110572,2777
1750241520.1106532,3333
1750241520.1107252,3458
1750241520.1107974,3208
1750241520.1108692,2805
1750241520.1109412,2413
1750241520.1110134,2087
1750241520.1110854,1785
1750241520.1452963,1655
1750241520.1822815,1950
1750241520.215355,2627
1750241520.2157977,3243
1750241520.2162058,3462
1750241520.2165954,3278
1750241520.2169738,2886
1750241520.2173479,2482
1750241520.2177236,2151
1750241520.220683,1849
1750241520.2270803,1665
1750241520.2271612,1868
1750241520.227229,2494
1750241520.2272975,3157
1750241520.2273643,3457
1750241520.227431,3338
1750241520.227498,2965
1750241520.2275643,2555
1750241520.227631,2207
1750241520.2276974,1897
1750241520.227764,1668
1750241520.22783,1790
1750241520.2279043,2361
1750241520.2279718,3061
1750241520.2280383,3444
1750241520.228105,3395
1750241520.2281713,3045
1750241520.2282376,2625
1750241520.2283044,2261
1750241520.2283792,1960
1750241520.2284455,1720
1750241520.2285123,1777
1750241520.2285783,2268
1750241520.228654,2952
1750241520.2287197,3383
1750241520.2287862,3407
1750241520.2288525,3114
1750241520.2289166,2712
1750241520.2289767,2326
1750241520.2290416,2001
1750241520.2291083,1737
1750241520.2291749,1742
1750241520.2292407,2178
1750241520.2293034,2859
1750241520.2296565,3336
1750241520.229727,3415
1750241520.229794,3167
1750241520.229862,2781
1750241520.2299268,2382
1750241520.2342,2036
1750241520.2342827,1742
1750241520.2343514,1684
1750241520.2344208,2057
1750241520.2344913,2738
1750241520.234559,3280
1750241520.2346275,3429
1750241520.234696,3228
1750241520.234764,2855
1750241520.234832,2454
1750241520.2349002,2101
1750241520.234968,1789
1750241520.2362158,1658
1750241520.236328,1941
1750241520.2363963,2595
1750241520.2364655,3202
1750241520.2365322,3433
1750241520.236599,3284
1750241520.2366662,2919
1750241520.2367325,2517
1750241520.2902396,2157
1750241520.2906344,1832
1750241520.2907615,1631
1750241520.290874,1819
1750241520.2964041,2435
1750241520.2965198,3105
1750241520.2966256,3424
1750241520.2969906,3331
1750241520.2971044,2974
1750241520.3025746,2566
1750241520.3277917,2206
1750241520.328104,1894
1750241520.328192,1667
1750241520.3282766,1775
1750241520.328373,2310
1750241520.3284595,2974
1750241520.328544,3344
1750241520.3286273,3325
1750241520.3287113,3029
1750241520.3287945,2640
1750241520.3288825,2252
1750241520.3289661,1898
1750241520.3290493,1621
1750241520.329133,1674
1750241520.3292167,2184
1750241520.3293002,2890
1750241520.3293836,3324
1750241520.3294666,3341
1750241520.3295643,3057
1750241520.329654,2678
1750241520.329743,2303
1750241520.3298318,1958
1750241520.32992,1649
1750241520.330017,1609
1750241520.330107,2045
1750241520.3301966,2788
1750241520.3302865,3338
1750241520.3303761,3445
1750241520.330465,3178
1750241520.3305547,2769
1750241520.3310928,2378
1750241520.3312197,2051
1750241520.3313067,1748
1750241520.3313968,1625
1750241520.331487,1930
1750241520.3395996,2606
1750241520.339698,3209
1750241520.3397875,3419
1750241520.3398757,3240
1750241520.3399637,2857
1750241520.340052,2449
1750241520.34014,2097
1750241520.3402278,1784
1750241520.3403158,1622
1750241520.340404,1858
1750241520.3404927,2487
1750241520.3405807,3113
1750241520.340681,3380
1750241520.340769,3270
1750241520.3408735,2932
1750241520.3409874,2531
1750241520.3411014,2157
1750241520.3412158,1823
1750241520.3413293,1619
1750241520.3414433,1798
1750241520.3415573,2391
1750241520.3416715,3043
1750241520.3559093,3358
1750241520.3560212,3288
1750241520.3561273,2975
1750241520.356248,2596
1750241520.3563535,2228
1750241520.3564749,1886
1750241520.3565924,1626
1750241520.4150093,1715
1750241520.4487917,2263
1750241520.4491448,2980
1750241520.449478,3401
1750241520.451554,3397
1750241520.4520376,3084
1750241520.4523828,2684
1750241520.4527214,2315
1750241520.453065,1998
1750241520.4534037,1724
1750241520.4537332,1717
1750241520.454064,2155
1750241520.4544015,2854
1750241520.4547355,3346
1750241520.4551651,3425
1750241520.4555209,3159
1750241520.455867,2763
1750241520.4562135,2377
1750241520.4565747,2047
1750241520.4569356,1748
1750241520.4573314,1663
1750241520.4576983,2023
1750241520.4580631,2724
1750241520.4637687,3300
1750241520.5095153,3462
1750241520.5156267,3238
1750241520.5252285,2837
1750241520.5253072,2433
1750241520.5253758,2098
1750241520.5254407,1799
1750241520.5255232,1662
1750241520.525597,1937
1750241520.599283,2598
1750241520.6330864,3223
1750241520.6336153,3466
1750241520.6342986,3310
1750241520.6439717,2928
1750241520.6440587,2513
1750241520.6452682,2158
1750241520.646533,1850
1750241520.6466157,1666
1750241520.6466901,1862
1750241520.6467645,2470
1750241520.646838,3126
1750241520.6469107,3440
1750241520.64698,3349
1750241520.6470504,2995
1750241520.6471248,2579
1750241520.6471984,2209
1750241520.6472716,1893
1750241520.6473563,1671
1750241520.64743,1790
1750241520.6475031,2340
1750241520.6475768,3022
1750241520.6476495,3407
1750241520.647725,3382
1750241520.647798,3056
1750241520.6478708,2644
1750241520.6479437,2267
1750241520.6480162,1952
1750241520.648089,1702
1750241520.6481616,1744
1750241520.6482332,2225
1750241520.6483061,2921
1750241520.648392,3376
1750241520.6484652,3419
1750241520.6485379,3128
1750241520.6486104,2720
1750241520.648715,2331
1750241520.6487882,2004
1750241520.648861,1721
1750241520.6489336,1686
1750241520.6490061,2098
1750241520.6491013,2807
1750241520.649175,3343
1750241520.6492484,3457
1750241520.6493316,3198
1750241520.6493952,2784
1750241520.649464,2382
1750241520.6671848,2056
1750241520.7008917,1766
1750241520.7009728,1663
1750241520.701048,1985
1750241520.7011216,2669
1750241520.7011948,3269
1750241520.7012684,3467
1750241520.7013328,3267
1750241520.7014081,2865
1750241520.7014837,2451
1750241520.7015567,2113
1750241520.7016299,1808
1750241520.7294052,1640
1750241520.7981348,1873
1750241520.7987819,2523
1750241520.8352182,3185
1750241520.8354483,3469
1750241520.8355274,3327
1750241520.8356502,2935
1750241520.8411376,2518
1750241520.8417244,2174
1750241520.8436713,1872
1750241520.8437822,1658
1750241520.8438895,1802
1750241520.8443465,2387
1750241520.8449333,3078
1750241520.8452437,3441
1750241520.8455076,3376
1750241520.8462782,3017
1750241520.8465848,2591
1750241520.846853,2219
1750241520.847405,1911
1750241520.8477464,1681
1750241520.8480196,1767
1750241520.848779,2278
1750241520.8490832,2947
1750241520.8493679,3347
1750241520.8496296,3354
1750241520.8497603,3062
1750241520.8498347,2663
1750241520.849907,2266
1750241520.8499792,1919
1750241520.85005,1652
1750241520.8501215,1691
1750241520.8501925,2176
1750241520.8502636,2887
1750241520.8503351,3364
1750241520.8504071,3427
1750241520.8504786,3158
1750241520.8505497,2755
1750241520.8506215,2347
1750241520.8506932,1997
1750241520.8507648,1706
1750241520.850836,1664
1750241520.8509073,2065
1750241520.8509784,2768
1750241520.85105,3313
1750241520.851121,3451
1750241520.851192,3228
1750241520.8512635,2842
1750241520.8513362,2446
1750241520.8514078,2098
1750241520.8514793,1780
1750241520.8515522,1643
1750241520.8516245,1937
1750241520.8517063,2611
1750241520.8766408,3226
1750241520.8771527,3451
1750241520.877229,3286
1750241520.877303,2914
1750241520.8773813,2509
1750241520.9048343,2151
1750241520.9346526,1824
1750241520.975196,1640
1750241520.9790053,1867
1750241520.9790888,2514
1750241520.979164,3173
1750241520.9792387,3453
1750241520.9793127,3323
1750241520.979393,2959
1750241520.979472,2563
1750241520.979546,2215
1750241520.9796336,1889
1750241520.9797013,1642
1750241520.9797685,1757
1750241520.9798367,2334
1750241520.979904,3045
1750241520.9799716,3433
1750241520.9800398,3384
1750241520.9801085,3036
1750241520.9801772,2624
1750241520.980248,2263
1750241520.980322,1952
1750241520.9805892,1688
1750241520.9806635,1724
1750241520.9807377,2219
1750241520.9808118,2934
1750241520.9808855,3389
1750241520.9809592,3408
1750241520.9810324,3086
1750241520.9811058,2667
1750241520.9811802,2291
1750241520.9812536,1984
1750241520.9813275,1711
1750241520.9814014,1676
1750241520.9814756,2079
1750241520.9815602,2771
1750241520.9816346,3291
1750241520.981742,3402
1750241520.9818175,3155
1750241520.9818947,2758
1750241520.9819686,2361
1750241520.982043,2024
1750241520.982117,1730
1750241520.9821908,1650
1750241520.9822648,2006
1750241520.982339,2701
1750241520.9824126,3280
1750241520.982486,3453
1750241520.98256,3247
1750241520.9826336,2857
1750241520.9827075,2449
1750241520.9827812,2101
1750241520.982855,1792
1750241520.9841208,1647
1750241520.9842298,1906
1750241520.9843054,2542
1750241520.9843805,3144
1750241520.984455,3379
1750241521.0419292,3244
1750241521.043323,2901
1750241521.0439234,2514
1750241521.0504885,2154
1750241521.050573,1819
1750241521.0512655,1613
1750241521.0708163,1807
1750241521.0940576,2436
1750241521.1057305,3117
1750241521.1058445,3437
1750241521.105951,3341
1750241521.1186192,2986
1750241521.1187696,2576
1750241521.1188807,2212
1750241521.1189919,1895
1750241521.1191025,1661
1750241521.1192176,1758
1750241521.1193273,2285
1750241521.1194363,2955
1750241521.119547,3338
1750241521.1196556,3327
1750241521.1197643,3030
1750241521.119873,2642
1750241521.1199813,2268
1750241521.1200898,1934
1750241521.1201997,1657
1750241521.1203077,1683
1750241521.1204174,2171
1750241521.1205256,2899
1750241521.1206343,3385
1750241521.1207447,3434
1750241521.1208544,3137
1750241521.1209638,2726
1750241521.1210732,2343
1750241521.121189,2019
1750241521.1212976,1724
1750241521.1260462,1654
1750241521.1261644,2035
1750241521.1262755,2746
1750241521.1264002,3308
1750241521.1265106,3446
1750241521.1266193,3199
1750241521.1267402,2789
1750241521.1268506,2394
1750241521.1269596,2075
1750241521.1271143,1784
1750241521.1272192,1660
1750241521.1273243,1947
1750241521.127429,2603
1750241521.1275463,3198
1750241521.1743426,3410
1750241521.1744268,3239
1750241521.1745007,2867
1750241521.174577,2465
1750241521.1775944,2109
1750241521.1776667,1784
1750241521.1777363,1607
1750241521.1778064,1844
1750241521.1778755,2499
1750241521.1779468,3164
1750241521.1780424,3447
1750241521.1781194,3312
1750241521.17819,2935
1750241521.1782591,2525
1750241521.1783302,2177
1750241521.1784048,1873
1750241521.1789412,1657
1750241521.1790836,1785
1750241521.1791508,2341
1750241521.1792188,3010
1750241521.179288,3375
1750241521.1793582,3340
1750241521.1794882,3020
1750241521.2019756,2615
1750241521.2020633,2237
1750241521.2021418,1910
1750241521.2022192,1659
1750241521.202296,1730
1750241521.202373,2248
1750241521.2024496,2956
1750241521.2025266,3398
1750241521.2026033,3417
1750241521.2026796,3111
1750241521.2027562,2699
1750241521.2028327,2314
1750241521.2029095,1996
1750241521.2029853,1726
1750241521.2030618,1710
1750241521.2031376,2130
1750241521.203214,2825
1750241521.2032902,3336
1750241521.2033665,3441
1750241521.2034426,3183
1750241521.2035186,2773
1750241521.2035947,2370
1750241521.2036712,2041
1750241521.2037568,1754
1750241521.2038324,1672
1750241521.2039077,2017
1750241521.2039833,2704
1750241521.204059,3285
1750241521.2041345,3464
1750241521.2042098,3253
1750241521.2042851,2849
1750241521.2043607,2436
1750241521.2044363,2100
1750241521.204512,1805
1750241521.2045875,1662
1750241521.2046635,1919
1750241521.2047398,2568
1750241521.2048154,3200
1750241521.2048917,3458
1750241521.2049673,3305
1750241521.2050517,2915
1750241521.2051282,2494
1750241521.205204,2145
1750241521.2052798,1842
1750241521.2053552,1651
1750241521.205431,1833
1750241521.205507,2443
1750241521.2055829,3124
1750241521.2056587,3462
1750241521.2057366,3374
1750241521.205813,3006
