1750240938.220817,2444
1750240938.3156562,2042
1750240938.323717,1669
1750240938.3241267,1377
1750240938.324508,1061
1750240938.324971,832
1750240938.3253863,1031
1750240938.3257678,1734
1750240938.3263662,2504
1750240938.326728,2829
1750240938.3271017,2628
1750240938.3274486,2197
1750240938.3279598,1846
1750240938.337984,1596
1750240938.355392,1264
1750240938.3579018,897
1750240938.3580153,924
1750240938.3581135,1573
1750240938.3583558,2461
1750240938.3584526,2945
1750240938.358521,2822
1750240938.3585901,2368
1750240938.358677,1984
1750240938.358756,1747
1750240938.36073,1453
1750240938.3608253,1033
1750240938.360916,877
1750240938.3610053,1316
1750240938.361092,2128
1750240938.3618615,2703
1750240938.389993,2734
1750240938.390225,2363
1750240938.4087348,1955
1750240938.408827,1662
1750240938.41469,1388
1750240938.414888,1035
1750240938.4151309,887
1750240938.415336,1248
1750240938.4154456,1989
1750240938.4155202,2571
1750240938.415594,2667
1750240938.4156587,2351
1750240938.4157305,1937
1750240938.4158015,1607
1750240938.4158788,1330
1750240938.4159555,1007
1750240938.4160364,868
1750240938.4161193,1218
1750240938.4161985,1987
1750240938.4162772,2643
1750240938.4163554,2802
1750240938.4164324,2501
1750240938.41651,2068
1750240938.4165878,1727
1750240938.416665,1467
1750240938.416739,1142
1750240938.4168227,907
1750240938.4168978,1107
1750240938.4169724,1787
1750240938.4170468,2491
1750240938.4171216,2774
1750240938.4171958,2579
1750240938.4172761,2172
1750240938.417351,1802
1750240938.4174256,1516
1750240938.4175117,1192
1750240938.4175992,923
1750240938.417688,1040
1750240938.417776,1646
1750240938.4178646,2361
1750240938.4179533,2723
1750240938.4180424,2614
1750240938.4181309,2233
1750240938.41822,1838
1750240938.4183083,1517
1750240938.4183993,1196
1750240938.41856,921
1750240938.4187658,998
1750240938.4198568,1563
1750240938.4199822,2300
1750240938.420099,2722
1750240938.4212599,2670
1750240938.4214928,2305
1750240938.4260483,1904
1750240938.442652,1578
1750240938.4430797,1268
1750240938.443447,963
1750240938.443792,953
1750240938.444157,1428
1750240938.4447467,2161
1750240938.4451327,2654
1750240938.445504,2685
1750240938.4458714,2360
1750240938.4462187,1963
1750240938.446716,1630
1750240938.4474766,1320
1750240938.4479601,989
1750240938.4482942,908
1750240938.448651,1327
1750240938.4489882,2089
1750240938.4493217,2668
1750240938.4496543,2762
1750240938.4595385,2448
1750240938.4663186,2041
1750240938.466406,1711
1750240938.4667985,1408
1750240938.4668717,1042
1750240938.4669359,882
1750240938.4670298,1269
1750240938.4671023,2110
1750240938.4671836,2810
1750240938.4672549,2949
1750240938.467326,2604
1750240938.467403,2174
1750240938.4675171,1883
1750240938.467592,1630
1750240938.4676545,1224
1750240938.4677167,910
1750240938.4677777,1165
1750240938.4678397,2035
1750240938.4679167,2897
1750240938.4679792,3163
1750240938.4680414,2818
1750240938.468103,2311
1750240938.4681678,1991
1750240938.4682293,1802
1750240938.4682908,1459
1750240938.4683747,1039
1750240938.4684596,1018
1750240938.4685278,1622
1750240938.4685986,2432
1750240938.4686675,2850
1750240938.4687667,2702
1750240938.4688897,2258
1750240938.4689984,1870
1750240938.4691057,1621
1750240938.4692242,1345
1750240938.4693336,1041
1750240938.4694421,1056
1750240938.4695487,1593
1750240938.4696662,2342
1750240938.4699955,2767
1750240938.4701138,2678
1750240938.4702208,2267
1750240938.4703276,1863
1750240938.4704485,1581
1750240938.4705656,1305
1750240938.4706721,1004
1750240938.4707797,1008
1750240938.4708865,1551
1750240938.4710033,2363
1750240938.4711108,2859
1750240938.4719546,2795
1750240938.472062,2371
1750240938.4722428,1970
1750240938.4723732,1711
1750240938.472491,1441
1750240938.4726098,1067
1750240938.472728,948
1750240938.481941,1442
1750240938.482069,2360
1750240938.4822679,3027
1750240938.4823763,3054
1750240938.4824834,2607
1750240938.4825904,2158
1750240938.4827077,1915
1750240938.4828146,1710
1750240938.482921,1309
1750240938.4830282,965
1750240938.4831457,1133
1750240938.4832528,1849
1750240938.4833598,2560
1750240938.4834678,2786
1750240938.483585,2510
1750240938.4836917,2084
1750240938.4837987,1764
1750240938.4839053,1516
1750240938.484423,1172
1750240938.4986525,930
1750240938.4987326,1191
1750240938.4988062,1985
1750240938.49888,2750
1750240938.4989536,2967
1750240938.499027,2640
1750240938.4990995,2169
1750240938.4991715,1858
1750240938.4992447,1648
1750240938.4993172,1297
1750240938.4993894,945
1750240938.499462,1084
1750240938.499534,1871
1750240938.4996061,2763
1750240938.4997053,3104
1750240938.4998024,2810
1750240938.4998796,2309
1750240938.499961,2001
1750240938.5000336,1843
1750240938.500105,1517
1750240938.5001771,1053
1750240938.5002487,977
1750240938.5007205,1602
1750240938.536822,2514
1750240938.5370412,2998
1750240938.5372007,2831
1750240938.537278,2351
1750240938.5373461,2004
1750240938.5374718,1829
1750240938.5375788,1547
1750240938.5376842,1094
1750240938.537808,940
1750240938.537911,1457
1750240938.5380135,2351
1750240938.5381155,2906
1750240938.538218,2815
1750240938.5383196,2340
1750240938.5384288,1944
1750240938.5606592,1740
1750240938.5835502,1499
1750240938.583721,1092
1750240938.5838273,922
1750240938.5839307,1398
1750240938.584516,2324
1750240938.5848267,2982
1750240938.5849392,2974
1750240938.585043,2499
1750240938.5851645,2053
1750240938.585269,1834
1750240938.585372,1649
1750240938.585476,1263
1750240938.5855787,947
1750240938.5856822,1153
1750240938.585785,1889
1750240938.585888,2578
1750240938.5859911,2761
1750240938.5860958,2456
1750240938.5862348,2026
1750240938.5863416,1710
1750240938.5864515,1476
1750240938.5865555,1160
1750240938.5866585,932
1750240938.586762,1150
1750240938.5868645,1844
1750240938.586968,2528
1750240938.5870712,2760
1750240938.5871742,2515
1750240938.5872781,2084
1750240938.5873814,1725
1750240938.5874844,1470
1750240938.587587,1177
1750240938.5876925,929
1750240938.604799,1044
1750240938.6325617,1622
1750240938.6658196,2289
1750240938.7161531,2607
1750240938.7315762,2477
1750240938.7316895,2103
1750240938.731881,1735
1750240938.7319877,1439
1750240938.7321062,1120
1750240938.7322097,856
1750240938.7323127,995
1750240938.7324169,1661
1750240938.7325194,2464
1750240938.7328649,2855
1750240938.7491753,2702
1750240938.7493238,2271
1750240938.749433,1906
1750240938.7498841,1655
1750240938.7734275,1335
1750240938.7902265,938
1750240938.7904124,888
1750240938.7905176,1476
1750240938.7922616,2384
1750240938.7947564,2939
1750240938.794881,2867
1750240938.794986,2419
1750240938.7950988,2033
1750240938.7952046,1812
1750240938.7953084,1537
1750240938.7954118,1089
1750240938.7955146,871
1750240938.795618,1293
1750240938.7963862,2178
1750240938.796987,2841
1750240938.7974577,2888
1750240938.7979693,2477
1750240938.798446,2056
1750240938.7991407,1803
1750240938.7992535,1557
1750240938.7993631,1145
1750240938.7994883,877
1750240938.7995963,1183
1750240938.7997048,2005
1750240938.7998128,2715
1750240938.799934,2854
1750240938.8000429,2498
1750240938.8001516,2058
1750240938.8007817,1773
1750240938.8008928,1553
1750240938.8010037,1195
1750240938.8011122,905
1750240938.8012326,1109
1750240938.8068035,1854
1750240938.8069236,2593
1750240938.807177,2823
1750240938.8072824,2531
1750240938.8073876,2084
1750240938.807491,1767
1750240938.8075953,1555
1750240938.8085716,1239
1750240938.8086777,930
1750240938.808781,1044
1750240938.8088837,1717
1750240938.8089874,2490
1750240938.8090906,2817
1750240938.8091934,2603
1750240938.8092964,2155
1750240938.8093996,1803
1750240938.8095121,1582
1750240938.8096156,1298
1750240938.812472,974
1750240938.874534,992
1750240938.8776054,1558
1750240938.896472,2329
1750240938.9086692,2749
1750240938.923757,2641
1750240938.9763772,2226
1750240939.0272555,1841
1750240939.1048021,1583
1750240939.147837,1307
1750240939.1479645,978
1750240939.1480834,939
1750240939.1482022,1437
1750240939.1483204,2219
1750240939.1514275,2718
1750240939.1515107,2687
1750240939.1515856,2293
1750240939.152301,1892
1750240939.1523845,1615
1750240939.152463,1345
1750240939.1525412,999
1750240939.1526186,900
1750240939.152729,1359
1750240939.152807,2197
1750240939.1528904,2806
1750240939.1529675,2844
1750240939.153045,2445
1750240939.1531227,2015
1750240939.1532235,1740
1750240939.153301,1499
1750240939.153387,1128
1750240939.1534638,904
1750240939.153541,1217
1750240939.156025,2018
1750240939.156103,2712
1750240939.1562164,2864
1750240939.15647,2527
1750240939.1565485,2092
1750240939.1810653,1794
1750240939.2544947,1550
1750240939.2943947,1172
1750240939.3383393,883
1750240939.3396785,1113
1750240939.3397946,1896
1750240939.3426435,2663
1750240939.3427432,2895
1750240939.3428721,2591
1750240939.3430204,2140
1750240939.3431163,1835
1750240939.3432114,1617
1750240939.3442812,1260
1750240939.344374,908
1750240939.3444595,1030
1750240939.3445446,1769
1750240939.3446324,2604
1750240939.3447208,2933
1750240939.3448088,2676
1750240939.3448958,2209
1750240939.3449824,1885
1750240939.3450687,1682
1750240939.3451703,1347
1750240939.3452601,952
1750240939.3453557,986
1750240939.345433,1687
1750240939.3455095,2599
1750240939.3455946,3037
1750240939.3456793,2829
1750240939.3457627,2330
1750240939.3458462,1976
1750240939.3459291,1799
1750240939.3460114,1520
1750240939.3460855,1073
1750240939.3461697,906
1750240939.3462524,1376
1750240939.3463352,2213
1750240939.3464181,2756
1750240939.346501,2710
1750240939.3465843,2291
1750240939.346668,1904
1750240939.346751,1663
1750240939.3468335,1392
1750240939.346917,1008
1750240939.3469996,897
1750240939.3470826,1401
1750240939.3471663,2295
1750240939.347243,2902
1750240939.347328,2885
1750240939.3474116,2442
1750240939.3474946,2026
1750240939.3475745,1794
1750240939.347651,1561
1750240939.347734,1148
1750240939.347821,881
1750240939.3479037,1193
1750240939.3479867,2020
1750240939.3480694,2725
1750240939.3481522,2859
1750240939.3482337,2509
1750240939.3483164,2100
1750240939.3483994,1845
1750240939.3548687,1617
1750240939.3550448,1218
1750240939.3551385,909
1750240939.3654184,1154
1750240939.3756275,1969
1750240939.3763883,2738
1750240939.3764644,2933
1750240939.3765352,2591
1750240939.3766098,2145
1750240939.3788025,1876
1750240939.3789756,1682
1750240939.3790905,1311
1750240939.3791687,933
1750240939.3792453,1051
1750240939.379321,1802
1750240939.3793967,2643
1750240939.3895702,2959
1750240939.4547887,2686
1750240939.455491,2220
1750240939.4555717,1915
1750240939.4562423,1731
1750240939.4942605,1403
1750240939.4967167,995
1750240939.54774,989
1750240939.5930283,1625
1750240939.5931246,2475
1750240939.5931947,2897
1750240939.5937324,2726
1750240939.5938165,2277
1750240939.598988,1932
1750240939.5990765,1722
1750240939.599155,1425
1750240939.5992334,1022
1750240939.5997343,947
1750240939.599819,1498
1750240939.5998974,2357
1750240939.5999753,2870
1750240939.6000533,2784
1750240939.600131,2335
1750240939.600209,1939
1750240939.6002872,1710
1750240939.6003654,1466
1750240939.6431496,1090
1750240939.6447139,926
1750240939.6448584,1318
1750240939.6449876,2104
1750240939.6456814,2684
1750240939.6530657,2724
1750240939.6531892,2349
1750240939.6533232,1937
1750240939.653441,1660
1750240939.6535568,1414
1750240939.653673,1068
1750240939.6538324,901
1750240939.6539364,1268
1750240939.6540556,2077
1750240939.6541612,2740
1750240939.6542659,2853
1750240939.6543884,2488
1750240939.6544943,2034
1750240939.6545968,1726
1750240939.6547008,1504
1750240939.6548035,1182
1750240939.6549065,933
1750240939.6550095,1131
1750240939.6551216,1818
1750240939.6552253,2507
1750240939.6553288,2752
1750240939.6554317,2517
1750240939.6555355,2099
1750240939.6556385,1749
1750240939.6557412,1481
1750240939.6558447,1156
1750240939.6559472,903
1750240939.6560762,1079
1750240939.6561792,1759
1750240939.656282,2493
1750240939.6563845,2794
1750240939.6564991,2592
1750240939.6566021,2168
1750240939.6567047,1808
1750240939.6568074,1549
1750240939.656921,1232
1750240939.6570237,926
1750240939.6571264,1016
1750240939.657229,1660
1750240939.6619725,2460
1750240939.7016835,2852
1750240939.7022026,2695
1750240939.7707682,2262
1750240939.7708704,1900
1750240939.7709622,1655
1750240939.7710767,1337
1750240939.774546,950
1750240939.7792392,918
1750240939.7795787,1517
1750240939.7799025,2411
1750240939.780236,2934
1750240939.7805684,2829
1750240939.7807536,2359
1750240939.780833,1966
1750240939.78091,1754
1750240939.7809858,1494
1750240939.7810624,1072
1750240939.7811368,889
1750240939.7812123,1342
1750240939.7812886,2235
1750240939.781365,2873
1750240939.7814407,2877
1750240939.7815168,2433
1750240939.7815905,2012
1750240939.781666,1783
1750240939.781742,1552
1750240939.7818298,1134
1750240939.7819064,873
1750240939.781982,1227
1750240939.782057,2114
1750240939.7821205,2850
1750240939.782193,2955
1750240939.7822688,2535
1750240939.7823355,2073
1750240939.7824275,1820
1750240939.7942884,1630
1750240939.7943645,1250
1750240939.8027554,915
1750240939.8031576,1108
1750240939.8035474,1883
1750240939.8039265,2644
1750240939.804287,2851
1750240939.8046143,2516
1750240939.8049457,2065
1750240939.8151562,1783
1750240939.817069,1578
1750240939.8193018,1212
1750240939.8201303,880
1750240939.8209329,1086
1750240939.8212676,1933
1750240939.8216002,2814
1750240939.8872333,3087
1750240939.88781,2733
1750240939.8930857,2222
1750240939.8933556,1934
1750240939.8963988,1785
1750240939.8964784,1448
1750240939.8965535,992
1750240939.897505,964
1750240939.905481,1637
1750240939.9055634,2542
1750240939.9056354,2973
1750240939.905711,2758
1750240939.905782,2269
1750240939.9058542,1930
1750240939.905924,1756
1750240939.9059944,1473
1750240939.9060655,1042
1750240939.9061253,923
1750240939.906192,1443
1750240939.9062626,2288
1750240939.9063325,2801
1750240939.906403,2724
1750240939.9064739,2287
1750240939.906545,1893
1750240939.9066153,1660
1750240939.9066856,1426
1750240939.9067564,1083
1750240939.9068267,947
1750240939.9068992,1317
1750240939.9069703,2031
1750240939.9070413,2547
1750240939.9071121,2584
1750240939.907183,2243
1750240939.9072537,1843
1750240939.907325,1544
1750240939.9073958,1294
1750240939.9074671,1015
1750240939.9075382,966
1750240939.907609,1414
1750240939.9076731,2209
1750240939.9077375,2795
1750240939.9078088,2851
1750240939.9078805,2493
1750240939.907951,2087
1750240939.9080229,1804
1750240939.908108,1542
1750240939.9122412,1153
1750240939.9123194,911
1750240939.9123933,1237
1750240939.9124658,2102
1750240939.9125388,2877
1750240939.9126115,3053
1750240939.9127326,2682
1750240939.9128,2214
1750240939.912869,1938
1750240939.9129376,1746
1750240939.9130151,1367
1750240939.913095,970
1750240939.9131746,1069
1750240939.9132545,1816
1750240939.9133492,2664
1750240939.9134293,2990
1750240939.9135094,2713
1750240939.9135985,2232
1750240939.9136744,1905
1750240939.9137483,1695
1750240939.913823,1335
1750240939.9138978,909
1750240939.9139721,924
1750240939.9140468,1613
1750240939.9141107,2505
1750240939.9141774,2921
1750240939.914252,2704
1750240939.9143262,2216
1750240939.914401,1875
1750240939.9144757,1697
1750240939.91455,1402
1750240939.9146245,970
1750240939.9147909,884
1750240939.9149196,1469
1750240939.9205768,2370
1750240939.964768,2878
1750240939.9648757,2743
1750240939.9865956,2273
1750240940.065472,1918
1750240940.0991066,1737
1750240940.1061954,1464
1750240940.1062849,1015
1750240940.106361,857
1750240940.1064363,1395
1750240940.1065102,2358
1750240940.1065855,2986
1750240940.1066606,2918
1750240940.106736,2419
1750240940.1068108,2008
1750240940.1068861,1829
1750240940.1069596,1620
1750240940.1070344,1167
1750240940.1071093,837
1750240940.1071846,1116
1750240940.10726,1939
1750240940.1073215,2635
1750240940.1073833,2744
1750240940.1074767,2374
1750240940.107554,1967
1750240940.107743,1729
1750240940.1078188,1516
1750240940.1079082,1129
1750240940.1079834,849
1750240940.1080585,1133
1750240940.1081328,1968
1750240940.1082187,2719
1750240940.1083024,2876
1750240940.1083696,2500
1750240940.1085203,2034
1750240940.1085954,1758
1750240940.1086702,1579
1750240940.1087615,1246
1750240940.1088405,906
1750240940.1089177,1014
1750240940.1089969,1700
1750240940.1090739,2470
1750240940.1091647,2779
1750240940.1092443,2549
1750240940.1093252,2108
1750240940.109407,1774
1750240940.109488,1564
1750240940.109569,1278
1750240940.109707,956
1750240940.1097846,977
1750240940.1098614,1522
1750240940.1099377,2235
1750240940.1100142,2602
1750240940.1102264,2484
1750240940.110705,2100
1750240940.1107905,1741
1750240940.1108706,1470
1750240940.1109488,1160
1750240940.1110275,851
1750240940.111108,923
1750240940.1111887,1572
1750240940.1112673,2431
1750240940.1113462,2891
1750240940.111424,2759
1750240940.111501,2302
1750240940.1115785,1912
1750240940.1118126,1671
1750240940.1118941,1388
1750240940.111972,991
1750240940.1120498,866
1750240940.112136,1346
1750240940.112513,2207
1750240940.1125906,2804
1750240940.1126673,2813
1750240940.112744,2406
1750240940.1128206,1998
1750240940.1128979,1743
1750240940.1272247,1494
1750240940.1273487,1099
1750240940.1274285,849
1750240940.127508,1117
1750240940.1275866,1840
1750240940.1277392,2471
1750240940.1278172,2630
1750240940.1279,2351
1750240940.1279655,1953
1750240940.1280313,1628
1750240940.128097,1349
1750240940.1281629,1010
1750240940.1282284,843
1750240940.1282942,1178
1750240940.1283605,1957
1750240940.128437,2630
1750240940.12851,2786
1750240940.1285858,2473
1750240940.1286595,2046
1750240940.1287332,1733
1750240940.1288493,1479
1750240940.1289945,1113
1750240940.1293652,833
1750240940.1770294,1071
1750240940.1784368,1881
1750240940.1976259,2701
1750240940.198764,2973
1750240940.1988885,2673
1750240940.2011678,2207
1750240940.2013595,1906
1750240940.2210045,1704
1750240940.2218683,1337
1750240940.221955,915
1750240940.2350044,953
1750240940.3094034,1673
1750240940.309483,2580
1750240940.309556,2995
1750240940.3096285,2768
1750240940.3096998,2285
1750240940.3097694,1956
1750240940.3098419,1771
1750240940.3099127,1438
1750240940.3099835,973
1750240940.3100557,904
1750240940.3101277,1560
1750240940.3101969,2532
1750240940.310262,3060
1750240940.310332,2892
1750240940.3104017,2377
1750240940.310472,2005
1750240940.310542,1836
1750240940.3106122,1570
1750240940.310682,1103
1750240940.3107564,905
1750240940.3108265,1399
1750240940.3109,2331
1750240940.3109708,2952
1750240940.31104,2898
1750240940.3111098,2411
1750240940.3111799,1993
1750240940.3112493,1794
1750240940.3113182,1575
1750240940.3113883,1147
1750240940.3114593,870
1750240940.3115294,1197
1750240940.3115993,2030
1750240940.3116617,2700
1750240940.3117213,2767
1750240940.3380466,2352
1750240940.3381152,1907
1750240940.3381846,1646
1750240940.338264,1435
1750240940.3383293,1078
1750240940.3383954,849
1750240940.3384702,1188
1750240940.3385365,2059
1750240940.3386023,2817
1750240940.338667,2958
1750240940.3387322,2553
1750240940.3387978,2067
1750240940.3388696,1789
1750240940.338935,1610
1750240940.3389997,1260
1750240940.339068,897
1750240940.339139,999
1750240940.3392098,1700
1750240940.3392804,2485
1750240940.3393517,2788
1750240940.3394227,2534
1750240940.3394933,2084
1750240940.3395638,1760
1750240940.3396301,1541
1750240940.3396885,1206
1750240940.339759,861
1750240940.3398294,965
1750240940.3399005,1692
1750240940.3399713,2549
1750240940.3400424,2904
1750240940.3401127,2649
1750240940.3401828,2160
1750240940.3402581,1825
1750240940.3403287,1634
1750240940.3403988,1319
1750240940.3404694,901
1750240940.34054,878
1750240940.3406105,1547
1750240940.340681,2496
1750240940.3407516,3001
1750240940.3408227,2827
1750240940.3408942,2314
1750240940.3409662,1936
1750240940.3410375,1760
1750240940.3411098,1509
1750240940.3411813,1067
1750240940.3412533,860
1750240940.341326,1280
1750240940.3414004,2118
1750240940.3414721,2711
1750240940.341544,2717
1750240940.3794737,2307
1750240940.4320085,1897
1750240940.4881053,1644
1750240940.5039783,1399
1750240940.5040665,1030
1750240940.5043535,851
1750240940.5044222,1222
1750240940.5044909,2018
1750240940.5045574,2638
1750240940.5046234,2711
1750240940.5047283,2341
1750240940.504795,1916
1750240940.5048614,1635
1750240940.5049284,1401
1750240940.5049942,1054
1750240940.505061,849
1750240940.5051775,1171
1750240940.5052445,1980
1750240940.5053113,2683
1750240940.5323248,2826
1750240940.541851,2468
1750240940.5804133,2022
1750240940.6143286,1735
1750240940.6198728,1515
1750240940.6203828,1147
1750240940.6208732,841
1750240940.6214144,1064
1750240940.6273282,1882
1750240940.6276863,2704
1750240940.6280584,2957
1750240940.6284573,2631
1750240940.6288335,2161
1750240940.6292012,1877
1750240940.6458502,1693
1750240940.650796,1325
1750240940.6508791,894
1750240940.6509964,924
1750240940.6511667,1631
1750240940.6512394,2513
1750240940.651312,2902
1750240940.651384,2667
1750240940.6514556,2189
1750240940.6515267,1864
1750240940.651708,1683
1750240940.681546,1368
1750240940.7386992,942
1750240940.7390487,902
1750240940.7393916,1544
1750240940.7397115,2462
1750240940.7400424,2947
1750240940.7403743,2777
1750240940.740705,2280
1750240940.7410347,1907
1750240940.7413669,1721
1750240940.7416975,1461
1750240940.7556312,1042
1750240940.7559874,899
1750240940.7563508,1397
1750240940.756697,2269
1750240940.7570412,2828
1750240940.7573786,2764
1750240940.7577124,2312
1750240940.758045,1916
1750240940.758371,1698
1750240940.7587454,1461
1750240940.7591848,1067
1750240940.7595196,877
1750240940.759848,1276
1750240940.7601805,2116
1750240940.7605104,2745
1750240940.7608395,2785
1750240940.7611718,2377
1750240940.761502,1946
1750240940.7618606,1686
1750240940.7621868,1476
1750240940.7810822,1134
1750240940.7814536,903
1750240940.781838,1168
1750240940.8089418,1908
1750240940.922299,2572
1750240940.922849,2734
1750240940.9229565,2425
1750240940.92306,1995
1750240940.9231634,1677
1750240940.923266,1432
1750240940.923373,1100
1750240940.9234765,864
1750240940.9235792,1108
1750240940.926452,1865
1750240940.9265392,2608
1750240940.9266133,2841
1750240940.9266868,2553
1750240940.92676,2104
1750240940.9268332,1781
1750240940.926906,1556
1750240940.9269793,1219
1750240940.9270523,888
1750240940.9271247,1010
1750240940.9271972,1733
1750240940.9272702,2570
1750240940.9273434,2921
1750240940.927416,2681
1750240940.9274893,2208
1750240940.9275618,1870
1750240940.927635,1670
1750240940.9276984,1362
1750240940.9277587,965
1750240940.9278283,937
1750240940.9279008,1548
1750240940.9279733,2422
1750240940.928045,2905
1750240940.9281237,2776
1750240940.928279,2318
1750240940.9286995,1938
1750240940.9418447,1716
1750240940.9422758,1436
1750240940.9423554,1027
1750240940.9424284,886
1750240940.9425,1346
1750240940.9425719,2168
1750240940.942643,2717
1750240940.960547,2695
1750240941.0298035,2282
1750240941.0299075,1880
1750240941.0299814,1627
1750240941.0301445,1372
1750240941.0302193,1004
1750240941.0302908,859
1750240941.030374,1288
1750240941.0304456,2130
1750240941.0305173,2753
1750240941.030589,2792
1750240941.030661,2385
1750240941.030732,1955
1750240941.030804,1687
1750240941.030875,1450
1750240941.0309465,1076
1750240941.0310183,850
1750240941.0310893,1179
1750240941.0311608,2009
1750240941.0312326,2719
1750240941.031304,2853
1750240941.031375,2488
1750240941.0314462,2052
1750240941.0315173,1780
1750240941.0315883,1558
1750240941.0316591,1169
1750240941.0317304,840
1750240941.0748641,1042
1750240941.1002727,1838
1750240941.1003668,2642
1750240941.11875,2897
1750240941.1225991,2593
1750240941.1226826,2144
1750240941.122953,1854
1750240941.1230283,1645
1750240941.123103,1268
1750240941.1669204,870
1750240941.1799164,960
1750240941.180771,1706
1750240941.1808944,2574
1750240941.1809995,2918
1750240941.1811025,2646
1750240941.181206,2166
1750240941.181309,1859
1750240941.181411,1690
1750240941.1817873,1365
1750240941.1818998,928
1750240941.182004,899
1750240941.183822,1563
1750240941.1839316,2488
1750240941.1840346,2954
1750240941.184137,2757
1750240941.1842942,2255
1750240941.1843972,1901
1750240941.1844995,1735
1750240941.194221,1470
1750240941.1962852,1024
1750240941.1963966,853
1750240941.1964715,1338
1750240941.1965442,2217
1750240941.1966164,2793
1750240941.1969318,2745
1750240941.2122862,2293
1750240941.2123704,1881
1750240941.2134137,1654
1750240941.213488,1430
1750240941.2135613,1061
1750240941.213634,865
1750240941.213707,1208
1750240941.2137792,1972
1750240941.241093,2574
1750240941.2654028,2657
1750240941.2654896,2308
1750240941.2655685,1888
1750240941.265647,1590
1750240941.2657251,1353
1750240941.2658029,1036
1750240941.2658799,857
1750240941.2659523,1138
1750240941.2660291,1836
1750240941.2660937,2448
1750240941.266162,2603
1750240941.3070734,2327
1750240941.3072064,1925
1750240941.3072987,1607
1750240941.3073757,1353
1750240941.307452,1034
1750240941.4325726,843
1750240941.433394,1130
1750240941.4402518,1895
1750240941.4681118,2613
1750240941.4686666,2823
1750240941.4695287,2534
1750240941.4761786,2107
1750240941.4817047,1801
1750240941.4906926,1562
1750240941.4907913,1186
1750240941.490871,839
1750240941.490952,998
1750240941.5280306,1791
1750240941.5281096,2672
1750240941.5281787,3008
1750240941.5282466,2726
1750240941.5283148,2241
1750240941.5283825,1937
1750240941.5284615,1765
1750240941.5285285,1419
1750240941.5285954,945
1750240941.5286622,882
1750240941.5287306,1535
1750240941.5287962,2470
1750240941.5288627,2958
1750240941.5289295,2782
1750240941.528996,2297
1750240941.529063,1956
1750240941.529129,1788
1750240941.5291958,1490
1750240941.5292618,1009
1750240941.5293298,850
1750240941.5293972,1407
1750240941.5294635,2361
1750240941.5295315,2945
1750240941.529598,2835
1750240941.5296643,2328
1750240941.52973,1938
1750240941.529801,1775
1750240941.5298672,1554
1750240941.5299332,1106
1750240941.529996,862
1750240941.5304651,1293
1750240941.53054,2229
1750240941.5306094,2917
1750240941.5306754,2916
1750240941.5307405,2432
1750240941.5308065,1997
1750240941.5308735,1813
1750240941.5309412,1640
1750240941.531007,1225
1750240941.5310733,893
1750240941.5311391,1159
1750240941.531204,2009
1750240941.531271,2756
1750240941.5313363,2875
1750240941.5314023,2457
1750240941.5314677,1999
1750240941.531531,1769
1750240941.5315902,1607
1750240941.6260166,1239
1750240941.6261444,899
1750240941.6275537,1105
1750240941.6358662,1935
1750240941.6364737,2756
1750240941.6598144,2970
1750240941.6756508,2593
1750240941.68757,2098
1750240941.728863,1820
1750240941.7518802,1662
1750240941.752257,1326
1750240941.7525952,930
1750240941.752931,990
1750240941.753265,1701
1750240941.753599,2555
1750240941.754044,2912
1750240941.806459,2660
1750240941.8289707,2168
1750240941.8296542,1822
1750240941.8297625,1640
1750240941.8303316,1370
1750240941.830437,998
1750240941.8305397,927
1750240941.8306456,1419
1750240941.8307114,2164
1750240941.8307767,2605
1750240941.8308449,2535
1750240941.8309088,2140
1750240941.830975,1748
1750240941.8310425,1479
1750240941.8311095,1220
1750240941.8311753,931
1750240941.831241,918
1750240941.831307,1399
1750240941.8313732,2131
1750240941.8314393,2590
1750240941.8315046,2555
1750240941.8315651,2178
1750240941.8316252,1783
1750240941.8316905,1497
1750240941.8317642,1220
1750240941.8318315,896
1750240941.831897,854
1750240941.8319626,1385
1750240941.832028,2271
1750240941.832093,2878
1750240941.8321602,2874
1750240941.8322299,2442
1750240941.8322985,2021
1750240941.8323646,1774
1750240941.8324304,1527
1750240941.8324952,1105
1750240941.8325598,835
1750240941.8326285,1170
1750240941.8326936,2054
1750240941.8327582,2820
1750240941.8328238,2971
1750240941.8328884,2584
1750240941.8329537,2126
1750240941.833019,1859
1750240941.8330836,1657
1750240941.833148,1270
1750240941.8332129,902
1750240941.8332775,1031
1750240941.8333428,1748
1750240941.8334112,2512
1750240941.8334756,2785
1750240941.833546,2526
1750240941.8336098,2090
1750240941.8336751,1766
1750240941.8337402,1533
1750240941.833805,1195
1750240941.833871,884
1750240941.833936,1027
1750240941.833996,1742
1750240941.8340545,2540
1750240941.889465,2859
1750240941.951916,2620
1750240941.951998,2159
1750240941.9520724,1811
1750240941.952145,1589
1750240941.9525692,1285
1750240941.9528666,944
1750240941.9531236,993
1750240941.9531972,1647
1750240941.9532685,2505
1750240941.9533415,2948
1750240941.9534147,2793
1750240941.953486,2325
1750240941.9535584,1936
1750240941.9536314,1708
1750240941.9537039,1440
1750240941.9537718,1069
1750240941.953904,960
1750240941.9539778,1408
1750240941.954048,2181
1750240941.9541082,2700
1750240941.9541817,2700
1750240941.9542546,2331
1750240941.9543307,1940
1750240941.954404,1663
1750240941.9544766,1390
1750240941.954556,1040
1750240941.9546292,922
1750240941.9547017,1330
1750240941.9547732,2100
1750240941.9548457,2667
1750240941.9549184,2719
1750240941.954991,2366
1750240941.9550638,1956
1750240941.9551475,1654
1750240941.955232,1381
1750240941.9815345,1031
1750240941.9816139,887
1750240941.9816866,1286
1750240941.9817646,2117
1750240941.981838,2779
1750240941.9819102,2876
1750240941.981982,2506
1750240941.9820597,2080
1750240941.9821203,1805
1750240941.9821913,1566
1750240941.9822638,1174
1750240941.9823353,882
1750240941.9824064,1142
1750240941.9824774,1971
1750240941.9825487,2756
1750240941.9826202,2969
1750240941.9826913,2639
1750240941.9827626,2199
1750240941.9828336,1925
1750240941.982905,1705
1750240941.982976,1294
1750240941.983047,894
1750240941.983118,1034
1750240941.9831896,1849
1750240941.9832604,2745
1750240941.9833317,3069
1750240941.9834027,2764
1750240941.9834733,2274
1750240941.9835453,1977
1750240941.9836087,1807
1750240941.983669,1461
1750240941.98374,1006
1750240941.9838114,975
1750240941.9838824,1634
1750240941.983954,2530
1750240941.9840353,2969
1750240941.9841063,2777
1750240941.9841769,2308
1750240941.984248,1976
1750240941.984319,1791
1750240941.9843903,1486
1750240941.984461,1046
1750240941.984532,956
1750240941.9846032,1540
1750240941.984674,2451
1750240941.9847453,2976
1750240941.9848166,2852
1750240941.9848888,2373
1750240941.9849608,1995
1750240941.9850318,1809
1750240941.985109,1565
1750240941.9851804,1139
1750240941.9852514,932
1750240941.9937656,1344
1750240941.9938517,2189
1750240941.9941502,2793
1750240941.9942236,2797
1750240941.9942963,2381
1750240941.9943686,1990
1750240941.99444,1774
1750240941.9945123,1553
1750240941.9945846,1166
1750240941.9946566,963
1750240941.9947298,1372
1750240941.994802,2276
1750240942.050878,2983
1750240942.0528984,3037
1750240942.052978,2586
1750240942.053068,2122
1750240942.0531414,1875
1750240942.0532143,1675
1750240942.053286,1266
1750240942.053358,902
1750240942.0534282,1086
1750240942.1041646,1880
1750240942.107833,2674
1750240942.1079779,2911
1750240942.108174,2590
1750240942.1085765,2128
1750240942.108692,1827
1750240942.1090882,1626
1750240942.1092002,1287
1750240942.1178727,938
1750240942.1179876,1026
1750240942.1181545,1692
1750240942.1182618,2464
1750240942.1183681,2793
1750240942.1185248,2585
1750240942.118632,2143
1750240942.1187372,1784
1750240942.1188421,1552
1750240942.118947,1270
1750240942.1190531,964
1750240942.11922,983
1750240942.1193528,1504
1750240942.1194634,2206
1750240942.119572,2597
1750240942.1196826,2518
1750240942.1197522,2144
1750240942.1198275,1756
1750240942.119907,1457
1750240942.1199787,1158
1750240942.1200502,880
1750240942.1201227,942
1750240942.120199,1516
1750240942.1203325,2290
1750240942.1204069,2724
1750240942.120476,2638
1750240942.120544,2241
1750240942.1206143,1870
1750240942.1206837,1602
1750240942.120755,1290
1750240942.120824,905
1750240942.1208935,851
1750240942.1209638,1437
1750240942.1210337,2388
1750240942.121102,3003
1750240942.1211717,2961
1750240942.1212413,2501
1750240942.1213098,2099
1750240942.1213775,1884
1750240942.1214466,1625
1750240942.1215155,1149
1750240942.1215856,835
1750240942.1216564,1164
1750240942.1217268,2053
1750240942.1218462,2806
1750240942.1219149,2941
1750240942.1219835,2556
1750240942.1220508,2115
1750240942.1221185,1852
1750240942.1221876,1635
1750240942.1222568,1235
1750240942.1223254,888
1750240942.1223927,1048
1750240942.12246,1768
1750240942.122528,2497
1750240942.1227696,2737
1750240942.1228368,2468
1750240942.122905,2039
1750240942.122974,1715
1750240942.1230493,1474
1750240942.123133,1140
1750240942.1232207,876
1750240942.1232972,1086
1750240942.123365,1839
1750240942.1234322,2610
1750240942.1234992,2867
1750240942.12356,2586
1750240942.1236262,2137
1750240942.1236928,1824
1750240942.1237593,1602
1750240942.1470084,1249
1750240942.2374518,887
1750240942.3021936,1011
1750240942.3038816,1798
1750240942.306251,2726
1750240942.306528,3114
1750240942.3067174,2846
1750240942.307487,2339
1750240942.3082967,2020
1750240942.308727,1867
1750240942.3095558,1557
1750240942.3098662,1062
1750240942.309951,897
1750240942.3100324,1430
1750240942.3195012,2325
1750240942.319583,2867
1750240942.3196454,2773
1750240942.3197122,2319
1750240942.319785,1951
1750240942.3198574,1747
1750240942.31993,1466
1750240942.3200455,1028
1750240942.3220198,884
1750240942.3221347,1419
1750240942.3222835,2364
1750240942.3225684,2975
1750240942.322675,2904
1750240942.3227801,2414
1750240942.3234227,2009
1750240942.3235772,1822
1750240942.3236845,1593
1750240942.3237908,1137
1750240942.323897,858
1750240942.3240469,1248
1750240942.3241534,2185
1750240942.3247526,2918
1750240942.3428876,2965
1750240942.343277,2505
1750240942.3436396,2072
1750240942.3440096,1884
1750240942.3443823,1712
1750240942.344751,1289
1750240942.3500004,919
1750240942.3503811,1147
1750240942.3506465,1996
1750240942.3508577,2785
1750240942.351133,2945
1750240942.3514264,2545
1750240942.3516061,2079
1750240942.3519125,1839
1750240942.352109,1677
1750240942.3522904,1302
1750240942.3524983,904
1750240942.3526862,1021
1750240942.3529692,1789
1750240942.3871694,2628
1750240942.3874037,2910
1750240942.4191577,2597
1750240942.419306,2118
1750240942.419433,1828
1750240942.419507,1667
1750240942.419579,1350
1750240942.4196515,961
1750240942.419724,1005
1750240942.4197962,1707
1750240942.4198687,2587
1750240942.419941,2974
1750240942.4200134,2729
1750240942.4200852,2229
1750240942.422334,1892
1750240942.4224808,1731
1750240942.423783,1464
1750240942.4239001,1052
1750240942.4240043,955
1750240942.4241085,1496
1750240942.424268,2355
1750240942.4245577,2862
1750240942.4248152,2756
1750240942.4250684,2296
1750240942.4253337,1913
1750240942.4255831,1706
1750240942.4258344,1460
1750240942.4260857,1071
1750240942.4263382,925
1750240942.4265969,1378
1750240942.4268525,2217
1750240942.4271038,2786
1750240942.4272246,2760
1750240942.4273288,2333
1750240942.427417,1933
1750240942.4274907,1703
1750240942.4275646,1463
1750240942.4276266,1074
1750240942.4276876,888
1750240942.4277616,1316
1750240942.4278352,2220
1750240942.4279091,2909
1750240942.4279823,2953
1750240942.4280558,2505
1750240942.428129,2055
1750240942.4282024,1825
1750240942.428276,1639
1750240942.4283502,1248
1750240942.428444,909
1750240942.446908,1110
1750240942.447697,1892
1750240942.5286963,2650
1750240942.6735382,2854
1750240942.674009,2524
1750240942.674079,2080
1750240942.6741502,1797
1750240942.6742373,1586
1750240942.674581,1218
1750240942.6826394,886
1750240942.6827269,1070
1750240942.682805,1869
1750240942.682883,2708
1750240942.6829617,2985
1750240942.6830392,2666
1750240942.6831172,2168
1750240942.6831944,1847
1750240942.683264,1672
1750240942.6833422,1371
1750240942.6834223,986
1750240942.6835012,965
1750240942.6835804,1543
1750240942.6836503,2332
1750240942.683729,2745
1750240942.68382,2611
1750240942.683899,2183
1750240942.683977,1802
1750240942.6840463,1553
1750240942.684115,1283
1750240942.684182,968
1750240942.68425,944
1750240942.6843174,1425
1750240942.6843863,2144
1750240942.6844559,2587
1750240942.6845336,2554
1750240942.6846116,2186
1750240942.68469,1780
1750240942.6847687,1469
1750240942.684847,1200
1750240942.6849248,934
1750240942.685003,929
1750240942.6850812,1376
1750240942.6851723,2079
1750240942.6852503,2561
1750240942.6853285,2600
1750240942.685407,2288
1750240942.6854868,1894
1750240942.6870599,1558
1750240942.6871457,1259
1750240942.6872194,949
1750240942.6872935,871
1750240942.6995475,1264
1750240942.7189834,1992
1750240942.719146,2559
1750240942.719299,2671
1750240942.719454,2388
1750240942.7196076,2000
1750240942.7197297,1667
1750240942.7198815,1361
1750240942.7200341,1000
1750240942.7201874,831
1750240942.7220516,1178
1750240942.7222178,1976
1750240942.755506,2670
1750240942.7616787,2847
1750240942.8300211,2551
1750240942.841041,2137
1750240942.9034467,1825
1750240942.9038064,1552
1750240942.9041429,1154
1750240942.9044738,845
1750240942.9051697,1068
1750240942.905543,1874
1750240942.9059656,2695
1750240942.9063306,2974
1750240942.906702,2692
1750240942.9070578,2245
1750240942.9074156,1941
1750240942.9077697,1716
1750240942.9081292,1331
1750240942.908514,913
1750240942.9089584,968
1750240942.9453073,1690
1750240942.9453948,2581
1750240942.945474,2988
1750240942.9455576,2777
1750240942.945635,2309
1750240942.9457128,1967
1750240942.9457898,1753
1750240942.9458663,1416
1750240942.9459436,972
1750240943.0121114,894
1750240943.0288224,1471
1750240943.0305214,2343
1750240943.0379803,2845
1750240943.038049,2749
1750240943.0381157,2323
1750240943.038183,1968
1750240943.0382497,1753
1750240943.038318,1468
1750240943.038384,1053
1750240943.038457,925
1750240943.0385263,1419
1750240943.0385933,2278
1750240943.0386596,2835
1750240943.0387266,2789
1750240943.0387926,2360
1750240943.0388596,1979
1750240943.0389256,1764
1750240943.0389922,1514
1750240943.0390582,1099
1750240943.0391252,900
1750240943.0391917,1329
1750240943.0392587,2231
1750240943.0393245,2908
1750240943.0393908,2944
1750240943.0394573,2511
1750240943.039521,2084
1750240943.0395808,1856
1750240943.0396447,1646
1750240943.039711,1238
1750240943.0397768,930
1750240943.0398433,1198
1750240943.03991,2035
1750240943.0399766,2799
1750240943.0400436,2975
1750240943.0401096,2611
1750240943.0401762,2150
1750240943.0402422,1870
1750240943.0403092,1681
1750240943.040375,1330
1750240943.040441,969
1750240943.040507,1043
1750240943.0405734,1682
1750240943.0406396,2413
1750240943.0407047,2717
1750240943.0407705,2514
1750240943.0408366,2099
1750240943.0409029,1759
1750240943.0409691,1511
1750240943.0410354,1193
1750240943.0411015,912
1750240943.041168,1072
1750240943.041234,1795
1750240943.0413005,2613
1750240943.0413668,2947
1750240943.0414326,2706
1750240943.041499,2231
1750240943.0415652,1881
1750240943.0416307,1666
1750240943.0416965,1357
1750240943.0417771,974
1750240943.0418508,977
1750240943.0419164,1634
1750240943.0419776,2554
1750240943.0420375,3050
1750240943.0421033,2893
1750240943.0421693,2397
1750240943.0422354,2018
1750240943.0423882,1833
1750240943.0679,1577
1750240943.119613,1133
1750240943.1197896,916
1750240943.1198688,1325
1750240943.1199582,2160
1750240943.1200325,2762
1750240943.1201155,2775
1750240943.1201925,2365
1750240943.1202645,1957
1750240943.120335,1712
1750240943.1204224,1466
1750240943.1204903,1084
1750240943.1205606,906
1750240943.1206279,1327
1750240943.1206973,2206
1750240943.1207635,2876
1750240943.1208315,2922
1750240943.1209002,2484
1750240943.1209664,2029
1750240943.1210353,1777
1750240943.1211019,1568
1750240943.1211712,1180
1750240943.1212375,895
1750240943.1213071,1183
1750240943.1213737,2035
1750240943.1214404,2799
1750240943.121507,2949
1750240943.1215737,2555
1750240943.1216402,2097
1750240943.1217096,1853
1750240943.1217902,1674
1750240943.121856,1284
1750240943.1219227,908
1750240943.1219842,1095
1750240943.1220467,1950
1750240943.1358368,2834
1750240943.1379418,3095
1750240943.2078798,2721
1750240943.2429001,2208
1750240943.252456,1932
1750240943.2695906,1791
1750240943.269709,1445
1750240943.269815,985
1750240943.2699203,971
1750240943.2702851,1658
1750240943.2703912,2550
1750240943.2704966,2950
1750240943.320524,2706
1750240943.3395529,2205
1750240943.3489423,1869
1750240943.3499045,1706
1750240943.350279,1426
1750240943.350462,1010
1750240943.3653316,928
1750240943.3753784,1488
1750240943.4006371,2340
1750240943.4144225,2815
1750240943.4147367,2683
1750240943.4148324,2218
1750240943.4149182,1843
1750240943.4150097,1642
1750240943.4151087,1396
1750240943.4181657,1025
1750240943.4183269,932
1750240943.418444,1452
1750240943.4185884,2329
1750240943.4186637,2894
1750240943.4187386,2841
1750240943.4188108,2389
1750240943.4188852,1985
1750240943.4189596,1761
1750240943.4190347,1524
1750240943.4191067,1134
1750240943.4191797,954
1750240943.4192533,1381
1750240943.419328,2256
1750240943.4194033,2899
1750240943.4194775,2913
1750240943.419547,2474
1750240943.4197476,2053
1750240943.419847,1829
1750240943.4199235,1607
1750240943.4200003,1181
1750240943.420077,870
1750240943.420152,1156
1750240943.420248,2008
1750240943.4203322,2758
1750240943.420407,2897
1750240943.4204817,2514
1750240943.4205565,2077
1750240943.4206305,1831
1750240943.4207332,1624
1750240943.4208088,1213
1750240943.4208832,852
1750240943.420957,1067
1750240943.4210324,1923
1750240943.4211063,2770
1750240943.4212072,2998
1750240943.4212885,2629
1750240943.4213738,2146
1750240943.421451,1883
1750240943.4215267,1721
1750240943.4218466,1353
1750240943.4219248,920
1750240943.4221082,976
1750240943.4222007,1724
1750240943.4222758,2619
1750240943.422351,2975
1750240943.4322484,2696
1750240943.4509478,2206
1750240943.4510262,1900
1750240943.4510953,1738
1750240943.4511635,1425
1750240943.4512327,981
1750240943.451305,905
1750240943.451375,1494
1750240943.4514477,2359
1750240943.4515128,2829
1750240943.4515738,2690
1750240943.4516406,2229
1750240943.4517097,1852
1750240943.4518182,1641
1750240943.4518874,1401
1750240943.4519546,1044
1750240943.4520314,910
1750240943.4521003,1290
1750240943.452168,1988
1750240943.4522347,2474
1750240943.452302,2497
1750240943.452369,2165
1750240943.4524384,1777
1750240943.4525049,1474
1750240943.4525726,1209
1750240943.4526553,925
1750240943.4527233,876
1750240943.4527931,1291
1750240943.453009,2008
1750240943.453078,2523
1750240943.4531484,2575
1750240943.4532204,2260
1750240943.4532874,1876
1750240943.453404,1566
1750240943.4534714,1281
1750240943.4535377,941
1750240943.4536057,814
1750240943.4536738,1223
1750240943.4537404,2059
1750240943.4538066,2735
1750240943.4538734,2849
1750240943.4539392,2489
1750240943.453999,2056
1750240943.4540634,1773
1750240943.454133,1531
1750240943.454204,1131
1750240943.4542713,801
1750240943.4543452,1013
1750240943.4544117,1825
1750240943.4544787,2647
1750240943.4545453,2914
1750240943.454611,2611
1750240943.4546788,2159
1750240943.454746,1869
1750240943.4548194,1654
1750240943.46041,1254
1750240943.4971442,831
1750240943.5356565,922
1750240943.5608015,1710
1750240943.5789447,2639
1750240943.5796368,3022
1750240943.5831006,2749
1750240943.5837135,2245
1750240943.5838625,1923
1750240943.5839798,1753
1750240943.584097,1424
1750240943.5842125,959
1750240943.5843291,886
1750240943.6043196,1519
1750240943.6333663,2448
1750240943.723222,2945
1750240943.7609732,2780
1750240943.7615752,2286
1750240943.7909517,1917
1750240943.7934594,1725
1750240943.7938652,1438
1750240943.8326359,993
1750240943.8348842,860
1750240943.8361113,1408
1750240943.8364558,2338
1750240943.8367822,2918
1750240943.8371046,2830
1750240943.8374257,2340
1750240943.837752,1933
1750240943.8380728,1734
1750240943.8383973,1507
1750240943.8387442,1091
1750240943.8390658,864
1750240943.8971684,1249
1750240943.9063385,2101
1750240943.9064236,2746
1750240943.9064994,2785
1750240943.9065745,2370
1750240943.9066496,1951
1750240943.9067256,1713
1750240943.906801,1497
1750240943.9068756,1116
1750240943.90695,871
1750240943.9222362,1192
1750240943.9223795,2024
1750240943.922453,2731
1750240943.9488866,2851
1750240943.9913595,2472
1750240943.9915001,2032
1750240943.991879,1766
1750240943.9920192,1554
1750240943.9921236,1176
1750240943.9922268,862
1750240943.9923298,1084
1750240943.9924328,1892
1750240943.9925356,2687
1750240943.992638,2914
1750240943.9928849,2582
1750240943.9931417,2117
1750240943.9933987,1825
1750240943.993978,1632
1750240943.9947097,1285
1750240943.9948332,912
1750240943.9949355,998
1750240943.995379,1708
1750240943.9956515,2545
1750240943.995869,2897
1750240943.996001,2660
1750240943.996104,2191
1750240943.9962082,1847
1750240943.9965837,1642
1750240943.9966857,1341
1750240943.9967887,964
1750240943.9968915,934
1750240943.9969945,1495
1750240943.9970977,2295
1750240943.9972014,2741
1750240943.9973042,2637
1750240943.9974074,2214
1750240943.9975247,1822
1750240943.9976277,1560
1750240943.9977305,1283
1750240943.9978335,956
1750240943.9979365,918
1750240943.998039,1413
1750240944.0084598,2185
1750240944.0086205,2676
1750240944.0087013,2652
1750240944.0087988,2270
1750240944.0089095,1867
1750240944.0089915,1576
1750240944.0090723,1299
1750240944.0091527,964
1750240944.0092373,868
1750240944.0093162,1292
1750240944.0093963,2068
1750240944.0094767,2644
1750240944.0095572,2714
1750240944.0096378,2375
1750240944.0097184,1952
1750240944.009798,1596
1750240944.009879,1251
1750240944.0099602,866
1750240944.0101585,762
1750240944.0102425,1272
1750240944.010323,2223
1750240944.0104034,2943
1750240944.0104818,3020
1750240944.0105612,2598
1750240944.0106406,2129
1750240944.0107198,1826
1750240944.0108004,1553
1750240944.010879,1107
1750240944.0109572,751
1750240944.0110364,971
1750240944.0111153,1812
1750240944.0111957,2664
1750240944.0112832,2966
1750240944.011362,2696
1750240944.0114408,2244
1750240944.0115201,1906
1750240944.0115988,1642
1750240944.0116773,1243
1750240944.0117671,846
1750240944.0118494,900
1750240944.0119286,1554
1750240944.0120077,2348
1750240944.0120873,2724
1750240944.0121672,2565
1750240944.0122461,2143
1750240944.0123255,1763
1750240944.0124047,1479
1750240944.0124843,1152
1750240944.0125644,851
1750240944.0126433,954
1750240944.012717,1614
1750240944.0127947,2426
1750240944.0128753,2817
1750240944.012956,2655
1750240944.0130363,2214
1750240944.013117,1841
1750240944.0131962,1586
1750240944.0132763,1276
1750240944.0133574,913
1750240944.0134377,913
1750240944.013518,1534
1750240944.0136003,2436
1750240944.0136802,2950
1750240944.0137608,2836
1750240944.0138416,2370
1750240944.013923,1990
1750240944.0232744,1780
1750240944.0379024,1508
1750240944.0458772,1063
1750240944.0460331,862
1750240944.0460978,1309
1750240944.0461638,2206
1750240944.0462415,2850
1750240944.0463176,2859
1750240944.0463908,2424
1750240944.0464637,2013
1750240944.0465364,1780
1750240944.0523224,1530
1750240944.0525932,1092
1750240944.0876722,826
1750240944.0877733,1195
1750240944.0878468,2104
1750240944.0879295,2848
1750240944.088002,2941
1750240944.0880742,2513
1750240944.0881464,2052
1750240944.0882175,1799
1750240944.0882893,1604
1750240944.0883608,1220
1750240944.0884433,885
1750240944.147496,1082
1750240944.1588783,1869
1750240944.1599343,2651
1750240944.1600163,2887
1750240944.16009,2571
1750240944.1601596,2105
1750240944.1603696,1790
1750240944.1604424,1584
1750240944.1605322,1260
1750240944.1606054,931
1750240944.1606848,1017
1750240944.1607573,1654
1750240944.160829,2390
1750240944.1609015,2697
1750240944.1616817,2493
1750240944.1617627,2074
1750240944.1622639,1733
1750240944.1623366,1487
1750240944.1624079,1171
1750240944.1624799,870
1750240944.162551,998
1750240944.1626358,1710
1750240944.1627135,2560
1750240944.1627905,2939
1750240944.1628695,2726
1750240944.16295,2250
1750240944.16303,1888
1750240944.1631072,1669
1750240944.1631844,1373
1750240944.1632614,981
1750240944.1633384,925
1750240944.163416,1496
1750240944.1634934,2375
1750240944.163571,2903
1750240944.1636484,2825
1750240944.1637251,2383
1750240944.1638026,1990
1750240944.1638799,1754
1750240944.1639574,1499
1750240944.1640358,1111
1750240944.164114,928
1750240944.1641915,1288
1750240944.164269,2042
1750240944.1643465,2621
1750240944.1644237,2700
1750240944.1645007,2368
1750240944.164587,1955
1750240944.1771536,1635
1750240944.1772366,1371
1750240944.1773105,1062
1750240944.177384,932
1750240944.1774783,1258
1750240944.1775522,1956
1750240944.1776245,2534
1750240944.1776974,2668
1750240944.1777706,2390
1750240944.177843,1977
1750240944.1779685,1623
1750240944.1780422,1340
1750240944.1781147,1036
1750240944.1781864,891
1750240944.1782587,1195
1750240944.1783314,1916
1750240944.1784074,2565
1750240944.178491,2753
1750240944.1785634,2496
1750240944.1786351,2097
1750240944.1787097,1771
1750240944.178788,1494
1750240944.178865,1126
1750240944.178942,856
1750240944.1790192,1097
1750240944.179097,1903
1750240944.1791744,2724
1750240944.1792517,3005
1750240944.1793287,2719
1750240944.1794062,2260
1750240944.1794827,1949
1750240944.17956,1728
1750240944.179637,1354
1750240944.179714,928
1750240944.1797912,965
1750240944.1798682,1683
1750240944.1799452,2605
1750240944.1800222,3042
1750240944.180099,2838
1750240944.180176,2357
1750240944.180253,2014
1750240944.1803381,1824
1750240944.1804147,1514
1750240944.1804917,1056
1750240944.1805687,920
1750240944.1806457,1440
1750240944.1807232,2306
1750240944.1808007,2836
1750240944.180878,2759
1750240944.1809576,2320
1750240944.1810348,1937
1750240944.1811113,1704
1750240944.1811883,1422
1750240944.1812649,1015
1750240944.1813416,894
1750240944.1814184,1418
1750240944.1814952,2340
1750240944.1815722,2950
1750240944.1833463,2902
1750240944.1835072,2426
1750240944.1836247,2006
1750240944.1836977,1793
1750240944.1837692,1570
1750240944.1838412,1154
1750240944.1839128,908
1750240944.1877253,1292
1750240944.1878812,2199
1750240944.1879554,2914
1750240944.1880279,2968
1750240944.1880996,2521
1750240944.188179,2084
1750240944.1882503,1875
1750240944.1883204,1682
1750240944.188392,1252
1750240944.1884706,891
1750240944.1885424,1150
1750240944.188614,2049
1750240944.1886854,2882
1750240944.1887574,3049
1750240944.1888301,2625
1750240944.1889021,2136
1750240944.188974,1896
1750240944.1890852,1744
1750240944.1891575,1360
1750240944.1892283,933
1750240944.1892998,1037
1750240944.1893716,1837
1750240944.189766,2729
1750240944.189839,3034
1750240944.2305655,2698
1750240944.2323444,2184
1750240944.232459,1881
1750240944.2329514,1732
1750240944.233082,1430
1750240944.23319,1017
1750240944.233521,987
1750240944.2401488,1600
1750240944.240264,2439
1750240944.240369,2859
1750240944.240644,2686
1750240944.2407525,2218
1750240944.2408564,1842
1750240944.247019,1632
1750240944.2476194,1391
1750240944.247728,1059
1750240944.2478325,982
1750240944.2479362,1418
1750240944.2480397,2126
1750240944.2481422,2574
1750240944.2482452,2540
1750240944.2483482,2169
1750240944.2484717,1771
1750240944.285111,1478
1750240944.2854512,1218
1750240944.2857757,946
1750240944.286093,953
1750240944.2864182,1465
1750240944.2979019,2261
1750240944.3593853,2781
1750240944.359466,2766
1750240944.3595388,2370
1750240944.3595989,1953
1750240944.3596654,1663
1750240944.3597374,1408
1750240944.3598087,1073
1750240944.3598807,933
1750240944.359952,1318
1750240944.3600233,2124
1750240944.3600943,2775
1750240944.3601654,2894
1750240944.3602364,2553
1750240944.3603072,2122
1750240944.360378,1815
1750240944.3604493,1574
1750240944.3651881,1230
1750240944.3652627,969
1750240944.365334,1150
1750240944.365404,1807
1750240944.3654745,2468
1750240944.365545,2713
1750240944.3656178,2504
1750240944.365688,2111
1750240944.3657584,1756
1750240944.3658292,1464
1750240944.3658996,1127
1750240944.36597,909
1750240944.3660307,1156
1750240944.3660944,1901
1750240944.3661642,2651
1750240944.3662345,2917
1750240944.3663042,2668
1750240944.3663745,2228
1750240944.3664443,1887
1750240944.366515,1640
1750240944.3665845,1302
1750240944.3666947,972
1750240944.4055152,1084
1750240944.405598,1804
1750240944.4056761,2670
1750240944.4057531,3060
1750240944.4058304,2848
1750240944.4059076,2379
1750240944.4059854,2039
1750240944.4060621,1833
1750240944.4061391,1506
1750240944.4062161,1066
1750240944.4062932,1001
1750240944.4063704,1622
1750240944.4064472,2556
1750240944.406524,3083
1750240944.4066012,2952
1750240944.4066782,2476
1750240944.406755,2114
1750240944.4068322,1923
1750240944.4069088,1636
1750240944.4069858,1168
1750240944.4070623,989
1750240944.407139,1508
1750240944.4072156,2461
1750240944.4072924,3089
1750240944.407369,3034
1750240944.4074452,2551
1750240944.4075217,2145
1750240944.4075983,1948
1750240944.407675,1718
1750240944.4077513,1275
1750240944.4078279,1002
1750240944.4079046,1369
1750240944.4538522,2263
1750240944.4627802,2976
1750240944.490218,3051
1750240944.490305,2625
1750240944.490453,2175
1750240944.4905317,1927
1750240944.490604,1735
1750240944.4906762,1364
1750240944.490748,1049
1750240944.4908197,1233
1750240944.4908907,1949
1750240944.4910326,2640
1750240944.5118926,2830
1750240944.5119696,2531
1750240944.5120442,2104
1750240944.5121188,1796
1750240944.5121858,1564
1750240944.5122519,1235
1750240944.512318,981
1750240944.5123832,1211
1750240944.5124683,1983
1750240944.520325,2764
1750240944.5204406,3022
1750240944.520525,2734
1750240944.5205915,2263
1750240944.520659,1926
1750240944.520725,1715
1750240944.5207906,1418
1750240944.520856,1092
1750240944.5209212,1139
1750240944.5209887,1741
1750240944.5210555,2510
1750240944.5211208,2900
1750240944.5211866,2766
1750240944.5212526,2354
1750240944.5213199,1984
1750240944.5213852,1730
1750240944.5214508,1445
1750240944.5215166,1119
1750240944.521584,1092
1750240944.5216517,1576
1750240944.5217204,2302
1750240944.5218062,2752
1750240944.5226264,2725
1750240944.522698,2373
1750240944.522769,1989
1750240944.5228355,1683
1750240944.5229023,1379
1750240944.5229692,1071
1750240944.523035,1091
1750240944.523101,1664
1750240944.5231667,2519
1750240944.523232,3054
1750240944.5232978,3013
1750240944.5233657,2598
1750240944.5234327,2202
1750240944.5234962,1946
1750240944.523556,1668
1750240944.5236208,1254
1750240944.5236866,1061
1750240944.5237517,1480
1750240944.5238173,2370
1750240944.523879,3058
1750240944.5239377,3131
1750240944.5239964,2733
1750240944.524059,2319
1750240944.5241244,2077
1750240944.5241892,1828
1750240944.5242543,1380
1750240944.5243204,1065
1750240944.5243914,1386
1750240944.5244572,2311
1750240944.5245233,3133
1750240944.5245888,3295
1750240944.5246553,2884
1750240944.5247216,2408
1750240944.5247858,2158
1750240944.5248451,1976
1750240944.5249057,1563
1750240944.5249667,1123
1750240944.5250287,1214
1750240944.5251029,1984
1750240944.5348492,2847
1750240944.5416043,3160
1750240944.5417175,2863
1750240944.5418355,2382
1750240944.5419407,2075
1750240944.5429027,1891
1750240944.5451639,1557
1750240944.5452337,1163
1750240944.5454183,1209
1750240944.5459447,1907
1750240944.5467463,2776
1750240944.5468712,3156
1750240944.5469952,2917
1750240944.5471175,2422
1750240944.5472424,2068
1750240944.5478215,1872
1750240944.5479445,1584
1750240944.54803,1187
1750240944.5480998,1125
1750240944.5481694,1687
1750240944.5482366,2534
1750240944.5483,3019
1750240944.548367,2911
1750240944.5484498,2460
1750240944.553375,2067
1750240944.554713,1838
1750240944.555133,1592
1750240944.5909333,1232
1750240944.5910385,1099
1750240944.5911136,1499
1750240944.5911877,2244
1750240944.5912752,2768
1750240944.5919387,2787
1750240944.5920177,2429
1750240944.5920901,2033
1750240944.5921628,1741
1750240944.5922358,1470
1750240944.592309,1140
1750240944.5923831,1049
1750240944.592456,1493
1750240944.5925293,2313
1750240944.5926032,2914
1750240944.5926762,2965
1750240944.5927489,2594
1750240944.5928218,2181
1750240944.5928938,1895
1750240944.592966,1637
1750240944.593038,1265
1750240944.59311,1051
1750240944.5931828,1386
1750240944.5932605,2218
1750240944.5933328,2944
1750240944.5934048,3110
1750240944.5934815,2773
1750240944.5935545,2333
1750240944.5936267,2038
1750240944.593699,1808
1750240944.5937712,1433
1750240944.5956838,1091
1750240944.5957801,1223
1750240944.5958586,1922
1750240944.626702,2682
1750240944.670655,2975
1750240944.6708403,2744
1750240944.6709158,2319
1750240944.6709907,1986
1750240944.6710644,1734
1750240944.6711373,1380
1750240944.671211,1048
1750240944.6712842,1185
1750240944.6713576,1931
1750240944.6732213,2792
1750240944.6733017,3151
1750240944.6740675,2908
1750240944.674132,2426
1750240944.6742027,2076
1750240944.674275,1861
1750240944.6743493,1537
1750240944.674459,1126
1750240944.674531,1102
1750240944.6746025,1742
1750240944.6746733,2656
1750240944.6747434,3155
1750240944.6748145,3012
1750240944.674885,2530
1750240944.6749566,2145
1750240944.6750264,1936
1750240944.675112,1670
1750240944.675184,1250
1750240944.6752546,1063
1750240944.6755087,1466
1750240944.6755757,2260
1750240944.6756363,2831
1750240944.6757069,2861
1750240944.6757774,2484
1750240944.6758485,2071
1750240944.675919,1786
1750240944.6759899,1529
1750240944.6760607,1192
1750240944.676131,1048
1750240944.676202,1409
1750240944.6762688,2156
1750240944.6763325,2743
1750240944.6764033,2833
1750240944.676473,2501
1750240944.6765435,2084
1750240944.676614,1765
1750240944.6766846,1492
1750240944.6767554,1152
1750240944.676826,999
1750240944.6768968,1381
1750240944.676967,2226
1750240944.6770372,2936
1750240944.6771083,3076
1750240944.6771784,2717
1750240944.677249,2272
1750240944.677319,1987
1750240944.6773899,1761
1750240944.6783361,1369
1750240944.6784155,1014
1750240944.6785324,1177
1750240944.6786032,1950
1750240944.6786702,2767
1750240944.6787624,3051
1750240944.6788697,2763
1750240944.6952808,2311
1750240944.72141,2012
1750240944.729073,1803
1750240944.731331,1427
1750240944.7317295,1015
1750240944.7319543,1083
1750240944.7320628,1824
1750240944.7321675,2721
1750240944.7322721,3105
1750240944.7323766,2856
1750240944.7324808,2359
1750240944.7325847,2012
1750240944.7326884,1817
1750240944.7327917,1505
1750240944.7329082,1079
1750240944.733012,1003
1750240944.7331157,1570
1750240944.7332187,2428
1750240944.733321,2925
1750240944.733424,2829
1750240944.7335265,2387
1750240944.73363,1995
1750240944.733733,1757
1750240944.7338357,1489
1750240944.7339387,1111
1750240944.734127,974
1750240944.7342305,1384
1750240944.7343338,2142
1750240944.7344363,2671
1750240944.7345388,2688
1750240944.7346423,2324
1750240944.734745,1922
1750240944.7348557,1625
1750240944.7349584,1343
1750240944.7476952,1010
1750240944.7477844,948
1750240944.7479792,1463
1750240944.829523,2355
1750240944.837795,2984
1750240944.8381355,3000
1750240944.8680367,2569
1750240944.875741,2129
1750240944.9080992,1869
1750240944.909391,1639
1750240944.9095333,1242
1750240944.923595,943
1750240944.923711,1180
1750240944.92379,1954
1750240944.926049,2680
1750240944.9261348,2880
1750240944.9262185,2569
1750240944.9263015,2136
1750240944.926385,1836
1750240944.9264684,1606
1750240944.9265516,1243
1750240944.9266343,926
1750240944.9267154,1087
1750240944.9267972,1811
1750240944.9268785,2577
1750240944.9269593,2857
1750240944.9270403,2607
1750240944.9271216,2171
1750240944.9272027,1838
1750240944.9272838,1592
1750240944.9273648,1235
1750240944.9274461,894
1750240944.9275382,1013
1750240944.9276073,1743
1750240944.927684,2597
1750240944.9277651,2967
1750240944.9278462,2742
1750240944.9279275,2267
1750240944.9280088,1919
1750240944.9280899,1724
1750240944.9281702,1439
1750240944.9282517,1044
1750240944.9283319,944
1750240944.928413,1411
1750240945.028513,2155
1750240945.0309105,2611
1750240945.0958626,2559
1750240945.1002421,2186
1750240945.1017423,1817
1750240945.102097,1543
1750240945.1024318,1235
1750240945.1027737,890
1750240945.1031048,885
1750240945.1036804,1468
1750240945.1043415,2336
1750240945.1047118,2853
1750240945.1190536,2773
1750240945.1704962,2332
1750240945.1734672,1939
1750240945.173543,1697
1750240945.1736176,1418
1750240945.173691,997
1750240945.173765,826
1750240945.1738994,1297
1750240945.1740243,2224
1750240945.1740873,2902
1750240945.177337,2931
1750240945.1774175,2494
1750240945.1800592,2069
1750240945.1801918,1841
1750240945.1802988,1611
1750240945.1817148,1168
1750240945.1821246,835
1750240945.1822028,1102
1750240945.1822743,1945
1750240945.1823468,2702
1750240945.1824183,2865
1750240945.1824899,2501
1750240945.182562,2060
1750240945.1826358,1792
1750240945.1827075,1572
1750240945.1827786,1167
1750240945.18285,825
1750240945.1829214,1050
1750240945.1829925,1897
1750240945.1830633,2731
1750240945.1831346,2958
1750240945.1832073,2597
1750240945.183279,2110
1750240945.1833503,1821
1750240945.1834223,1634
1750240945.1834936,1268
1750240945.1835647,869
1750240945.1836355,971
1750240945.1837077,1754
1750240945.1837876,2667
1750240945.1838713,3031
1750240945.1839488,2743
1750240945.1840227,2219
1750240945.184095,1872
1750240945.184167,1703
1750240945.1842382,1422
1750240945.1843092,1008
1750240945.1843812,902
1750240945.1844523,1401
1750240945.1845229,2183
1750240945.1845934,2646
1750240945.1846645,2568
1750240945.1847355,2161
1750240945.1848063,1777
1750240945.1848774,1517
1750240945.1849475,1237
1750240945.1850183,909
1750240945.199817,890
1750240945.216864,1433
1750240945.2169523,2260
1750240945.2170331,2762
1750240945.2171144,2695
1750240945.2171934,2262
1750240945.2172723,1851
1750240945.217351,1588
1750240945.2174292,1329
1750240945.2175078,975
1750240945.2175863,871
1750240945.2176652,1360
1750240945.2177436,2254
1750240945.2178214,2894
1750240945.2178996,2910
1750240945.2179792,2467
1750240945.2180398,2022
1750240945.218114,1770
1750240945.2181916,1550
1750240945.2182703,1153
1750240945.218348,858
1750240945.2184358,1112
1750240945.2494357,1906
1750240945.2503383,2635
1750240945.2506793,2816
1750240945.2562358,2481
1750240945.271658,2034
1750240945.3201962,1730
1750240945.3455698,1492
1750240945.3464956,1127
1750240945.350528,858
1750240945.3506296,1125
1750240945.350704,1962
1750240945.3507755,2768
1750240945.3508482,2995
1750240945.3509223,2652
1750240945.3510594,2162
1750240945.3511336,1843
1750240945.3512056,1633
1750240945.3512778,1278
1750240945.3513439,902
1750240945.3514159,984
1750240945.351506,1697
1750240945.3515792,2545
1750240945.3516505,2908
1750240945.3517752,2673
1750240945.351849,2196
1750240945.3519416,1848
1750240945.3520143,1635
1750240945.352086,1317
1750240945.352158,929
1750240945.3522358,934
1750240945.352308,1581
1750240945.3523996,2462
1750240945.3524716,2911
1750240945.3525429,2736
1750240945.3526144,2251
1750240945.3526864,1866
1750240945.3527575,1639
1750240945.352849,1346
1750240945.352921,951
1750240945.3529925,896
1750240945.3530636,1494
1750240945.3531346,2423
1750240945.3532057,2978
1750240945.3536572,2880
1750240945.353732,2393
1750240945.3538055,1977
1750240945.353879,1760
1750240945.353952,1534
1750240945.3540237,1140
1750240945.3541713,904
1750240945.3542516,1202
1750240945.3543253,1931
1750240945.3543985,2526
1750240945.3544703,2637
1750240945.3545427,2324
1750240945.354616,1915
1750240945.354689,1593
1750240945.3547618,1324
1750240945.3548338,1014
1750240945.3549068,897
1750240945.3549793,1260
1750240945.3550534,2007
1750240945.355187,2608
1750240945.3552606,2718
1750240945.355334,2398
1750240945.3554075,1973
1750240945.35548,1642
1750240945.355553,1370
1750240945.3556263,1036
1750240945.3557003,858
1750240945.3557742,1195
1750240945.3558471,2020
1750240945.35592,2763
1750240945.355993,2951
1750240945.3560662,2620
1750240945.356148,2171
1750240945.3562214,1874
1750240945.3562965,1649
1750240945.356377,1267
1750240945.3564525,893
1750240945.3565257,1020
1750240945.3565986,1791
1750240945.3566701,2665
1750240945.356743,3011
1750240945.356816,2746
1750240945.3568919,2269
1750240945.3569663,1947
1750240945.366431,1747
1750240945.3701894,1396
1750240945.3702729,958
1750240945.378106,953
1750240945.3783114,1648
1750240945.3784375,2589
1750240945.3786013,3057
1750240945.378679,2856
1750240945.3790212,2344
1750240945.3793156,1976
1750240945.3796456,1790
1750240945.3799324,1500
1750240945.3801725,1048
1750240945.3805265,914
1750240945.3808095,1465
1750240945.3811343,2386
1750240945.3815162,2944
1750240945.381758,2840
1750240945.3818681,2353
1750240945.3819735,1956
1750240945.382219,1746
1750240945.3823242,1488
1750240945.3824286,1066
1750240945.3825338,908
1750240945.3826404,1422
1750240945.3827474,2381
1750240945.382852,3039
1750240945.3829572,3010
1750240945.3830626,2516
1750240945.3831692,2068
1750240945.3832743,1850
1750240945.3833957,1659
1750240945.383501,1260
1750240945.3836055,936
1750240945.3837242,1134
1750240945.3838286,1851
1750240945.4165292,2516
1750240945.4516556,2682
1750240945.52554,2373
1750240945.5432901,1947
1750240945.6214104,1634
1750240945.6655045,1395
1750240945.6666179,1080
1750240945.6669483,896
1750240945.667061,1209
1750240945.6671658,2003
1750240945.6715345,2718
1750240945.671639,2890
1750240945.6717181,2554
1750240945.6718082,2095
1750240945.6718898,1783
1750240945.6719599,1560
1750240945.672047,1223
1750240945.672118,932
1750240945.672187,1139
1750240945.6722572,1940
1750240945.6723275,2782
1750240945.6723979,3067
1750240945.6728723,2753
1750240945.673576,2257
1750240945.67365,1938
1750240945.6737223,1736
1750240945.6746814,1365
1750240945.6747644,906
1750240945.6748388,894
1750240945.674913,1591
1750240945.6749868,2525
1750240945.6750607,2976
1750240945.6751537,2766
1750240945.6752279,2272
1750240945.6752994,1931
1750240945.6753724,1748
1750240945.6755373,1432
1750240945.675613,965
1750240945.675686,866
1750240945.675759,1496
1750240945.6758313,2482
1750240945.6759043,3045
1750240945.6759775,2895
1750240945.67605,2360
1750240945.676122,1955
1750240945.6761937,1779
1750240945.6762664,1552
1750240945.6763387,1113
1750240945.6764112,873
1750240945.6764846,1270
1750240945.6765573,2136
1750240945.6766396,2776
1750240945.6767125,2799
1750240945.6767886,2366
1750240945.6768615,1926
1750240945.6769347,1667
1750240945.6770065,1449
1750240945.6770744,1098
1750240945.6771455,881
1750240945.6772287,1176
1750240945.6779947,1926
1750240945.6789248,2563
1750240945.6824138,2688
1750240945.6825,2350
1750240945.6837323,1895
1750240945.6840954,1554
1750240945.6841748,1312
1750240945.6857383,1027
1750240945.6858213,856
1750240945.6859,1105
1750240945.6859782,1777
1750240945.6860406,2410
1750240945.686109,2613
1750240945.686186,2370
1750240945.686264,1953
1750240945.686341,1593
1750240945.6864178,1318
1750240945.6865022,1012
1750240945.6865785,808
1750240945.6866553,1041
1750240945.6867325,1757
1750240945.6868098,2488
1750240945.6868863,2753
1750240945.686963,2509
1750240945.6870403,2066
1750240945.6871173,1710
1750240945.6871939,1443
1750240945.6872706,1098
1750240945.6873474,784
1750240945.6874242,942
1750240945.6875007,1727
1750240945.6875646,2650
1750240945.6876416,3055
1750240945.6877184,2804
1750240945.687795,2268
1750240945.687872,1874
1750240945.687949,1664
1750240945.688027,1379
1750240945.6881037,949
1750240945.688181,781
1750240945.6882577,1206
1750240945.6883347,1984
1750240945.6884334,2514
1750240945.6885135,2510
1750240945.68859,2116
1750240945.688667,1682
1750240945.6887438,1365
1750240945.6888204,1088
1750240945.6888974,787
1750240945.688974,740
1750240945.6890507,1184
1750240945.6891272,1937
1750240945.6892035,2473
1750240945.6892803,2522
1750240945.6893563,2172
1750240945.6894333,1736
1750240945.6895099,1389
1750240945.6895866,1112
1750240945.6896634,831
1750240945.68974,786
1750240945.6898167,1236
1750240945.6898937,2045
1750240945.691923,2665
1750240945.6938298,2760
1750240945.693902,2420
1750240945.693974,2000
1750240945.6940458,1687
1750240945.694117,1409
1750240945.6941879,1037
1750240945.6942592,835
1750240945.6943371,1202
1750240945.6944082,2092
1750240945.6944833,2875
1750240945.6945543,3053
1750240945.6946256,2688
1750240945.6946964,2226
1750240945.6947696,1938
1750240945.6948404,1717
1750240945.6949108,1316
1750240945.6949816,916
1750240945.6950526,1021
1750240945.7119234,1769
1750240945.7589605,2620
1750240945.760688,2963
1750240945.7831914,2720
1750240945.8221407,2257
1750240945.8235292,1917
1750240945.9019241,1689
1750240945.9509318,1349
1750240945.96228,957
1750240945.962676,948
1750240945.9630632,1534
1750240945.9636421,2320
1750240945.9698699,2728
1750240945.969985,2600
1750240945.9701066,2186
1750240945.970263,1819
1750240945.970347,1567
1750240945.9704373,1273
1750240945.9705753,945
1750240945.9706628,962
1750240945.9707532,1543
1750240945.9708433,2354
1750240945.9709241,2795
1750240945.9710062,2675
1750240945.9710848,2244
1750240945.9713163,1879
1750240945.9769423,1649
1750240945.9770365,1366
1750240945.9771209,962
1750240945.977208,857
1750240945.977294,1421
1750240945.9773834,2391
1750240945.9774802,3019
1750240945.9775667,2941
1750240945.9776554,2430
1750240945.9777336,2030
1750240945.977819,1892
1750240945.9934535,1704
1750240945.9935384,1208
1750240945.993618,830
1750240945.9936965,1185
1750240945.9937758,2195
1750240945.9940462,2958
1750240945.9941459,2795
1750240945.9944284,1901
1750240945.9945035,1088
1750240945.9945784,863
1750240945.9946544,1000
1750240945.99473,961
1750240945.9948053,810
1750240945.994881,1107
1750240945.9949565,2045
1750240945.9950316,3005
1750240946.010105,3299
1750240946.0555491,2864
1750240946.062255,2187
1750240946.06413,1685
1750240946.0682,1340
1750240946.068459,914
1750240946.0685668,588
1750240946.0686715,873
1750240946.0687752,1852
1750240946.0877316,2857
1750240946.0909455,3182
1750240946.0923364,2781
1750240946.0965204,2152
1750240946.096851,1729
1750240946.097174,1496
1750240946.0974956,1180
1750240946.0978162,826
1750240946.0981302,889
1750240946.159396,1577
1750240946.2110019,2434
1750240946.213615,2814
1750240946.2141,2573
1750240946.2398763,2045
1750240946.2399879,1640
1750240946.2400937,1425
1750240946.2401986,1194
1750240946.2410555,898
1750240946.2411728,895
1750240946.2414622,1421
1750240946.2415726,2178
1750240946.2416782,2594
1750240946.2418132,2475
1750240946.2422278,2041
1750240946.243166,1653
1750240946.2468874,1407
1750240946.247031,1161
1750240946.2472272,851
1750240946.2476628,807
1750240946.247776,1297
1750240946.2481623,2088
1750240946.2486014,2582
1750240946.2489262,2519
1750240946.2500696,2101
1750240946.2518775,1724
1750240946.2566893,1500
1750240946.2568212,1265
1750240946.2574177,901
1750240946.2651043,754
1750240946.2652724,1203
1750240946.2653806,2091
1750240946.2670639,2740
1750240946.2705624,2749
1750240946.27064,2298
1750240946.2707133,1869
1750240946.2707865,1656
1750240946.2708592,1468
1750240946.2711504,1077
1750240946.2712245,760
1750240946.2712972,1005
1750240946.2713697,1824
1750240946.2714422,2583
1750240946.2715137,2754
1750240946.2715874,2389
1750240946.2717206,1934
1750240946.271804,1669
1750240946.2718766,1493
1750240946.2719488,1155
1750240946.2720203,811
1750240946.2720928,921
1750240946.2721653,1604
1750240946.2722373,2351
1750240946.2731128,2615
1750240946.2731898,2354
1750240946.2732584,1916
1750240946.2733216,1604
1750240946.2733943,1395
1750240946.2734666,1092
1750240946.2738266,787
1750240946.2739015,904
1750240946.2739768,1592
1750240946.2740433,2390
1750240946.274115,2709
1750240946.2741878,2463
1750240946.2742598,1999
1750240946.2743318,1676
1750240946.274852,1490
1750240946.2749298,1206
1750240946.2750034,832
1750240946.2750764,818
1750240946.2762504,1429
1750240946.2763343,2291
1750240946.276408,2735
1750240946.2764819,2553
1750240946.276555,2066
1750240946.2766285,1714
1750240946.276701,1546
1750240946.2767742,1308
1750240946.2768471,909
1750240946.27692,782
1750240946.2769926,1296
1750240946.2770655,2200
1750240946.2771382,2777
1750240946.2772107,2694
1750240946.28,2204
1750240946.2800763,1812
1750240946.28015,1651
1750240946.2802234,1450
1750240946.2803009,944
1750240946.280372,449
1750240946.280445,491
1750240946.2805188,1172
1750240946.2805948,1981
1750240946.2806687,2438
1750240946.2807415,2435
1750240946.2808125,2217
1750240946.280885,2001
1750240946.2809584,1806
1750240946.2810311,1525
1750240946.281104,1320
1750240946.2811642,1469
1750240946.2812364,1971
1750240946.2813094,2419
1750240946.2813814,2506
1750240946.2814543,2275
1750240946.2815273,2001
1750240946.2816,1845
1750240946.2816725,1738
1750240946.2817457,1498
1750240946.2818282,1253
1750240946.2819004,1376
1750240946.282082,1958
1750240946.282155,2567
1750240946.2822313,2769
1750240946.2822978,2562
1750240946.282365,2247
1750240946.2824328,2040
1750240946.2824972,1854
1750240946.2825656,1491
1750240946.2826324,1124
1750240946.2827013,1268
1750240946.2827737,2060
1750240946.2828462,2899
1750240946.282917,3068
1750240946.2829888,2508
1750240946.283061,1751
1750240946.2831333,1324
1750240946.2832048,1235
1750240946.2832773,1107
1750240946.2833488,832
1750240946.283415,856
1750240946.283487,1520
1750240946.2840497,2502
1750240946.2852533,3098
1750240946.2853987,3008
1750240946.285559,2464
1750240946.285718,1907
1750240946.2858827,1499
1750240946.2861903,1118
1750240946.2863607,713
1750240946.2865255,656
1750240946.2866917,1258
1750240946.2869203,2308
1750240946.2872052,3188
1750240946.2874851,3550
1750240946.2879097,3451
1750240946.2881565,3182
1750240946.2883267,2882
1750240946.2887383,2509
1750240946.2897415,2029
1750240946.2978776,1756
1750240946.2992637,1995
1750240946.2993479,2621
1750240946.299427,3104
1750240946.2995057,3138
1750240946.2995687,2827
1750240946.2996354,2513
1750240946.2997134,2356
1750240946.299826,2252
1750240946.2999163,2014
1750240946.2999938,1818
1750240946.3000712,1995
1750240946.3001487,2565
1750240946.300224,3080
1750240946.3002994,3184
1750240946.3003745,2914
1750240946.3004496,2573
1750240946.3005245,2349
1750240946.3006003,2177
1750240946.3006756,1874
1750240946.3007503,1597
1750240946.3008256,1744
1750240946.3009007,2404
1750240946.3009753,3106
1750240946.3010504,3362
1750240946.3011248,3127
1750240946.3012,2716
1750240946.3012753,2411
1750240946.3013499,2198
1750240946.3014243,1875
1750240946.3014991,1520
1750240946.301574,1551
1750240946.3016484,2150
1750240946.3017228,2917
1750240946.303843,3295
1750240946.3039286,3145
1750240946.3040068,2734
1750240946.3040862,2383
1750240946.304166,2137
1750240946.3042443,1816
1750240946.3043218,1446
1750240946.3044002,1433
1750240946.3044806,2014
1750240946.3045578,2841
1750240946.3046362,3299
1750240946.3563747,3185
1750240946.395902,2749
1750240946.4319253,2372
1750240946.434056,2131
1750240946.43438,1840
1750240946.4344883,1444
1750240946.434593,1345
1750240946.4346976,1865
1750240946.4348023,2744
1750240946.434907,3310
1750240946.435138,3256
1750240946.435745,2802
1750240946.4358518,2393
1750240946.4359632,2167
1750240946.4360719,1925
1750240946.4361758,1510
1750240946.4362795,1272
1750240946.4363828,1627
1750240946.4651349,2466
1750240946.4664738,3131
1750240946.466559,3204
1750240946.4666393,2802
1750240946.466718,2364
1750240946.4668002,2104
1750240946.4668815,1887
1750240946.466961,1501
1750240946.4670398,1197
1750240946.4671164,1442
1750240946.467194,2251
1750240946.4672723,2999
1750240946.4673505,3161
1750240946.4674292,2784
1750240946.4675066,2320
1750240946.4675844,2062
1750240946.4676616,1885
1750240946.4677393,1507
1750240946.467817,1127
1750240946.4678946,1312
1750240946.4679718,2192
1750240946.4680495,3067
1750240946.4681273,3161
1750240946.4682086,2431
1750240946.468288,1530
1750240946.4683657,1085
1750240946.4920528,1105
1750240946.493291,1103
1750240946.4934,917
1750240946.4935052,996
1750240946.4936101,1695
1750240946.4937162,2644
1750240946.493821,3141
1750240946.4939258,2925
1750240946.4941583,2305
1750240946.4942656,1739
1750240946.494372,1355
1750240946.4944768,973
1750240946.4945972,606
1750240946.4947047,695
1750240946.4948096,1480
1750240946.494914,2518
1750240946.4950204,3067
1750240946.495189,2877
1750240946.4977808,2271
1750240946.4979079,1739
1750240946.4980133,1424
1750240946.4981189,1145
1750240946.4982393,800
1750240946.4983442,725
1750240946.498461,1207
1750240946.498571,2022
1750240946.4986746,2560
1750240946.4987788,2529
1750240946.498883,2091
1750240946.4989884,1636
1750240946.499093,1331
1750240946.4991975,1078
1750240946.4993012,768
1750240946.4994051,671
1750240946.4995096,1080
1750240946.499629,1850
1750240946.4997365,2411
1750240946.4998405,2436
1750240946.499945,2052
1750240946.5000494,1629
1750240946.500155,1338
1750240946.5002594,1090
1750240946.5003638,755
1750240946.5004811,604
1750240946.5005846,1011
1750240946.5006886,1889
1750240946.5391698,2599
1750240946.5392587,2687
1750240946.539346,2264
1750240946.544945,1792
1750240946.5450337,1530
1750240946.5451276,1354
1750240946.5452046,1006
1750240946.545275,653
1750240946.5453496,763
1750240946.545422,1455
1750240946.5454936,2212
1750240946.5455658,2486
1750240946.545636,2228
1750240946.5457113,1792
1750240946.5457833,1484
1750240946.5458534,1281
1750240946.5459187,970
1750240946.5459833,638
1750240946.546052,708
1750240946.5461245,1344
1750240946.5462003,2110
1750240946.5462716,2440
1750240946.5463443,2227
1750240946.5464149,1779
1750240946.5464888,1438
1750240946.546564,1229
1750240946.54664,952
1750240946.546714,630
1750240946.5467837,678
1750240946.572897,1319
1750240946.572978,2168
1750240946.5730486,2585
1750240946.5731177,2394
1750240946.573185,1910
1750240946.573256,1558
1750240946.5733242,1384
1750240946.5733924,1137
1750240946.5734615,739
1750240946.573528,624
1750240946.5735948,1148
1750240946.5736625,2041
1750240946.573729,2593
1750240946.5737948,2494
1750240946.573861,2012
1750240946.5739217,1632
1750240946.5739892,1467
1750240946.5740552,1259
1750240946.5741212,840
1750240946.5741885,600
1750240946.5742555,992
1750240946.574322,1881
1750240946.5743873,2549
1750240946.5744526,2565
1750240946.5745192,2108
1750240946.574592,1671
1750240946.5746593,1453
1750240946.5747256,1268
1750240946.574792,895
1750240946.5748582,621
1750240946.574926,907
1750240946.5749922,1732
1750240946.5924041,2454
1750240946.653778,2580
1750240946.6679623,2187
1750240946.701988,1718
1750240946.7054455,1450
1750240946.7056353,1293
1750240946.7087095,998
1750240946.7092023,693
1750240946.7097201,784
1750240946.7102244,1382
1750240946.71077,2042
1750240946.7112303,2292
1750240946.7115989,2077
1750240946.7121036,1670
1750240946.7241466,1334
1750240946.7692366,1095
1750240946.771579,822
1750240946.773264,609
1750240946.7733817,801
1750240946.773497,1482
1750240946.7736125,2215
1750240946.7737162,2492
1750240946.7738028,2251
1750240946.773879,1801
1750240946.773946,1462
1750240946.7740207,1251
1750240946.7740972,973
1750240946.774173,657
1750240946.774249,714
1750240946.7743247,1356
1750240946.7744014,2199
1750240946.7744796,2613
1750240946.774556,2431
1750240946.7746549,1968
1750240946.774731,1626
1750240946.7748125,1436
1750240946.774889,1161
1750240946.7749643,752
1750240946.7750397,652
1750240946.7751224,1203
1750240946.7751963,2115
1750240946.775272,2683
1750240946.7753477,2603
1750240946.7754235,2126
1750240946.775501,1718
1750240946.7755768,1511
1750240946.7756522,1298
1750240946.7757285,912
1750240946.7758093,672
1750240946.7758849,968
1750240946.7759607,1704
1750240946.7760363,2298
1750240946.7761118,2381
1750240946.7761872,2043
1750240946.776263,1640
1750240946.7763383,1354
1750240946.7764142,1118
1750240946.776489,810
1750240946.7765648,666
1750240946.7766404,1013
1750240946.776716,1781
1750240946.7767918,2417
1750240946.7768676,2527
1750240946.7769434,2175
1750240946.7770188,1724
1750240946.7770946,1410
1750240946.7771702,1196
1750240946.7772462,904
1750240946.7773218,682
1750240946.7773972,891
1750240946.777473,1578
1750240946.7775486,2264
1750240946.7776244,2489
1750240946.7777002,2233
1750240946.8040452,1819
1750240946.8041348,1510
1750240946.8042145,1280
1750240946.8042924,957
1750240946.8046405,678
1750240946.8047283,870
1750240946.8048487,1640
1750240946.8049233,2473
1750240946.8049977,2776
1750240946.8050718,2491
1750240946.8051496,2007
1750240946.8052197,1687
1750240946.8052936,1503
1750240946.8053632,1194
1750240946.8054338,795
1750240946.805504,787
1750240946.8055737,1431
1750240946.8056438,2316
1750240946.8057134,2761
1750240946.8057835,2578
1750240946.805853,2096
1750240946.8059227,1739
1750240946.8059845,1551
1750240946.8060458,1287
1750240946.8061156,872
1750240946.8061855,718
1750240946.8062556,1166
1750240946.806325,1974
1750240946.806395,2505
1750240946.8064647,2470
1750240946.8065348,2056
1750240946.806605,1656
1750240946.8066747,1408
1750240946.8067446,1183
1750240946.8068147,870
1750240946.806884,761
1750240946.806954,1161
1750240946.8070235,1922
1750240946.8070936,2475
1750240946.8071637,2507
1750240946.8072414,2135
1750240946.8073113,1719
1750240946.8073814,1432
1750240946.8074512,1204
1750240946.807518,904
1750240946.807577,764
1750240946.807645,1103
1750240946.8077157,1852
1750240946.807786,2472
1750240946.8078558,2586
1750240946.8079257,2257
1750240946.8079953,1831
1750240946.8080647,1522
1750240946.8081348,1290
1750240946.8082054,985
1750240946.808276,778
1750240946.8083456,1017
1750240946.8084147,1725
1750240946.8084962,2411
1750240946.8085668,2628
1750240946.8086364,2365
1750240946.8087063,1935
1750240946.8087766,1597
1750240946.8088465,1351
1750240946.8091004,1040
1750240946.8091698,768
1750240946.8092396,904
1750240946.8093095,1558
1750240946.8093734,2305
1750240946.8094425,2631
1750240946.8095117,2443
1750240946.8238723,2013
1750240946.8240256,1651
1750240946.824133,1404
1750240946.8242376,1116
1750240946.8243763,822
1750240946.8245652,891
1750240946.8246713,1504
1750240946.824775,2294
1750240946.8248785,2692
1750240946.8249955,2542
1750240946.8251119,2109
1750240946.8252172,1746
1750240946.825324,1506
1750240946.8254282,1210
1750240946.8255348,837
1750240946.8256419,799
1750240946.8257458,1381
1750240946.825849,2275
1750240946.8260615,2806
1750240946.8261726,2705
1750240946.8262768,2230
1750240946.8263805,1825
1750240946.8264835,1608
1750240946.8265867,1378
1750240946.8266895,994
1750240946.826792,802
1750240946.826902,1182
1750240946.8301105,1992
1750240946.842693,2603
1750240946.8711863,2645
1750240946.8713405,2249
1750240946.897989,1825
1750240946.9159155,1564
1750240946.9703424,1356
1750240946.9726033,1029
1750240947.0195515,818
1750240947.0196862,1081
1750240947.0557818,1783
1750240947.0646596,2392
1750240947.0647717,2522
1750240947.064887,2221
1750240947.0649905,1818
1750240947.0651135,1514
1750240947.0652199,1268
1750240947.0653236,954
1750240947.0654268,784
1750240947.0666249,1118
1750240947.0667746,1924
1750240947.066881,2632
1750240947.0669858,2781
1750240947.0670922,2433
1750240947.0673342,1987
1750240947.0674412,1701
1750240947.0676537,1496
1750240947.0677576,1159
1750240947.0678601,836
1750240947.0951478,982
1750240947.195903,1715
1750240947.1959977,2524
1750240947.1960697,2829
1750240947.1961398,2568
1750240947.196209,2108
1750240947.1962779,1793
1750240947.1963508,1607
1750240947.1964397,1317
1750240947.1965091,946
1750240947.2288842,915
1750240947.2295446,1453
1750240947.229723,2211
1750240947.2299054,2611
1750240947.230051,2489
1750240947.2312887,2083
1750240947.2314487,1725
1750240947.2315931,1480
1750240947.2317376,1205
1750240947.231903,891
1750240947.232049,904
1750240947.2321935,1473
1750240947.2323384,2291
1750240947.232483,2753
1750240947.2326264,2645
1750240947.2327712,2204
1750240947.2329159,1814
1750240947.2330604,1576
1750240947.2332036,1335
1750240947.233348,995
1750240947.2334917,883
1750240947.2336357,1311
1750240947.2337794,2107
1750240947.233933,2670
1750240947.2340605,2686
1750240947.2422853,2300
1750240947.2424781,1892
1750240947.2426584,1626
1750240947.2428389,1399
1750240947.2430155,1069
1750240947.243192,877
1750240947.2433696,1161
1750240947.2435453,1867
1750240947.2437217,2470
1750240947.2438982,2601
1750240947.2440743,2306
1750240947.2442307,1897
1750240947.2443223,1578
1750240947.2444317,1327
1750240947.2445493,1023
1750240947.2446675,853
1750240947.2447846,1140
1750240947.2449012,1868
1750240947.245017,2531
1750240947.2451525,2705
1750240947.2578158,2414
1750240947.2597425,1987
1750240947.2598655,1663
1750240947.259941,1418
1750240947.2600133,1090
1750240947.2600856,822
1750240947.2601576,1017
1750240947.2602289,1761
1750240947.2603006,2557
1750240947.260371,2850
1750240947.2604427,2583
1750240947.2605145,2110
1750240947.2605863,1771
1750240947.260658,1565
1750240947.2607293,1269
1750240947.2608008,911
1750240947.2608726,912
1750240947.2609441,1502
1750240947.2610161,2315
1750240947.2610872,2749
1750240947.2611587,2613
1750240947.26123,2164
1750240947.2613013,1776
1750240947.261373,1542
1750240947.2614524,1295
1750240947.2615237,969
1750240947.2615955,893
1750240947.261667,1329
1750240947.2617388,2058
1750240947.261879,2538
1750240947.261951,2522
1750240947.2620223,2144
1750240947.2620928,1734
1750240947.2621634,1441
1750240947.2622344,1194
1750240947.292537,919
1750240947.344836,876
1750240947.3658795,1307
1750240947.37391,2047
1750240947.3739958,2563
1750240947.374905,2578
1750240947.3750014,2207
1750240947.378282,1794
1750240947.3804011,1504
1750240947.3805425,1261
1750240947.3806493,949
1750240947.3814259,824
1750240947.3815005,1215
1750240947.3815668,2030
1750240947.381633,2681
1750240947.381699,2769
1750240947.3829114,2386
1750240947.3829875,1939
1750240947.3830535,1657
1750240947.383119,1445
1750240947.3831854,1102
1750240947.383251,833
1750240947.3833165,1063
1750240947.3833828,1832
1750240947.4025316,2578
1750240947.4026198,2787
1750240947.402702,2466
1750240947.4027834,2009
1750240947.4029675,1708
1750240947.4030864,1509
1750240947.4031684,1188
1750240947.40325,864
1750240947.4161658,966
1750240947.418055,1635
1750240947.4183848,2401
1750240947.4187505,2713
1750240947.4190955,2489
1750240947.4195096,2045
1750240947.4198372,1705
1750240947.4201694,1487
1750240947.4205055,1201
1750240947.4208558,886
1750240947.4211795,931
1750240947.421511,1522
1750240947.422192,2285
1750240947.4225852,2655
1750240947.439146,2490
1750240947.445433,2056
1750240947.4457662,1697
1750240947.446172,1468
1750240947.446513,1194
1750240947.446833,867
1750240947.447155,884
1750240947.447553,1491
1750240947.4478757,2352
1750240947.4481986,2818
1750240947.459186,2670
1750240947.5003903,2195
1750240947.517247,1826
1750240947.5174055,1638
1750240947.5175333,1395
1750240947.522531,992
1750240947.522639,837
1750240947.5227368,1321
1750240947.5228338,2226
1750240947.5230048,2834
1750240947.5230963,2785
1750240947.5231862,2311
1750240947.5232759,1909
1750240947.5233648,1728
1750240947.5234547,1535
1750240947.5235443,1121
1750240947.523634,830
1750240947.5237231,1134
1750240947.5238123,1971
1750240947.523902,2663
1750240947.5239928,2741
1750240947.5240824,2331
1750240947.524169,1902
1750240947.5242496,1678
1750240947.5243309,1499
1750240947.5244112,1133
1750240947.5244923,834
1750240947.5245726,1086
1750240947.5246532,1910
1750240947.5247338,2673
1750240947.5248146,2828
1750240947.5248947,2431
1750240947.5249803,1953
1750240947.5250614,1701
1750240947.5251493,1562
1750240947.5253072,1248
1750240947.5254219,895
1750240947.546353,996
1750240947.6272914,1709
1750240947.6278296,2506
1750240947.6292183,2780
1750240947.6292892,2476
1750240947.6293561,2001
1750240947.629423,1711
1750240947.629489,1552
1750240947.629555,1251
1750240947.6296213,879
1750240947.6296878,934
1750240947.6297538,1642
1750240947.6298194,2526
1750240947.629883,2896
1750240947.6366365,2624
1750240947.6413589,2114
1750240947.6418583,1797
1750240947.6420672,1660
1750240947.6425626,1401
1750240947.643147,979
1750240947.643246,884
1750240947.6433163,1459
1750240947.6433887,2362
1750240947.6434536,2868
1750240947.6444318,2717
1750240947.644504,2220
1750240947.644573,1847
1750240947.6446424,1680
1750240947.6447124,1473
1750240947.644781,1084
1750240947.6448493,888
1750240947.6449175,1266
1750240947.6449862,2054
1750240947.6453643,2620
1750240947.664143,2626
1750240947.7018795,2218
1750240947.7019646,1796
1750240947.7065253,1540
1750240947.7066407,1348
1750240947.7067459,1064
1750240947.7068493,908
1750240947.7069535,1190
1750240947.7070575,1851
1750240947.7071612,2395
1750240947.7072651,2490
1750240947.7073677,2191
1750240947.7074704,1794
1750240947.707576,1487
1750240947.707841,1249
1750240947.7079458,971
1750240947.7080498,844
1750240947.7081528,1178
1750240947.7082691,1930
1750240947.7083714,2581
1750240947.7084792,2719
1750240947.708557,2392
1750240947.7086253,1952
1750240947.7087026,1641
1750240947.7087796,1417
1750240947.7088468,1104
1750240947.7089236,849
1750240947.7090194,1056
1750240947.7091227,1809
1750240947.709237,2596
1750240947.709342,2870
1750240947.7094462,2586
1750240947.7095501,2112
1750240947.7096539,1785
1750240947.7097917,1595
1750240947.7099001,1308
1750240947.7100046,944
1750240947.7101078,911
1750240947.7102113,1440
1750240947.7103207,2191
1750240947.710429,2606
1750240947.7208288,2502
1750240947.7223415,2095
1750240947.722625,1709
1750240947.7228296,1449
1750240947.72302,1199
1750240947.7231412,924
1750240947.723657,916
1750240947.7237399,1373
1750240947.7238157,2060
1750240947.723891,2487
1750240947.7239668,2455
1750240947.7240417,2088
1750240947.724117,1677
1750240947.724193,1369
1750240947.7242684,1127
1750240947.7243454,892
1750240947.7244198,888
1750240947.724495,1310
1750240947.72457,1995
1750240947.7246447,2476
1750240947.7247193,2515
1750240947.7247944,2193
1750240947.7248697,1795
1750240947.7249448,1475
1750240947.7250237,1212
1750240947.725118,934
1750240947.7460666,871
1750240947.7617707,1280
1750240947.7638085,2044
1750240947.8009205,2631
1750240947.8014643,2706
1750240947.8022673,2355
1750240947.8034022,1934
1750240947.803482,1636
1750240947.8035462,1391
1750240947.8036215,1043
1750240947.8037024,815
1750240947.8038023,1096
1750240947.8038845,1884
1750240947.8039672,2613
1750240947.804049,2803
1750240947.8041346,2479
1750240947.852697,2034
1750240947.8838797,1734
1750240947.9510016,1512
1750240947.9573658,1161
1750240948.0139427,845
1750240948.0141325,1016
1750240948.014285,1772
1750240948.0144374,2581
1750240948.0154617,2870
1750240948.015534,2592
1750240948.0155952,2127
1750240948.0336754,1812
1750240948.0731099,1620
1750240948.0743692,1305
1750240948.074639,921
1750240948.0750215,914
1750240948.0853643,1505
1750240948.0855951,2293
1750240948.0857067,2678
1750240948.0871897,2510
1750240948.0872762,2076
1750240948.0873494,1731
1750240948.087423,1511
1750240948.0877566,1227
1750240948.0878315,892
1750240948.0879035,927
1750240948.0879755,1574
1750240948.0880463,2461
1750240948.0881166,2918
1750240948.0881886,2742
1750240948.0882602,2242
1750240948.0883315,1863
1750240948.0884027,1680
1750240948.0884988,1450
1750240948.0885706,1056
1750240948.0886421,890
1750240948.0887132,1320
1750240948.088784,2146
1750240948.0888548,2707
1750240948.0889258,2675
1750240948.088997,2248
1750240948.0890672,1857
1750240948.089138,1641
1750240948.0892045,1417
1750240948.0892625,1041
1750240948.0893314,846
1750240948.0894065,1234
1750240948.0894809,2081
1750240948.089555,2731
1750240948.0896285,2773
1750240948.0897021,2356
1750240948.0897756,1927
1750240948.089849,1689
1750240948.0899231,1493
1750240948.089982,1132
1750240948.0900548,859
1750240948.0901287,1119
1750240948.090203,1915
1750240948.0902774,2639
1750240948.090351,2791
1750240948.0904243,2424
1750240948.0904977,1968
1750240948.0905712,1700
1750240948.0906465,1527
1750240948.090724,1214
1750240948.0908005,917
1750240948.0908678,1086
1750240948.0909379,1819
1750240948.091007,2582
1750240948.0910766,2817
1750240948.0911543,2506
1750240948.0912247,2044
1750240948.0912933,1744
1750240948.091363,1549
1750240948.091432,1215
1750240948.0915017,842
1750240948.0915709,913
1750240948.0916414,1620
1750240948.0917106,2481
1750240948.0942695,2845
1750240948.0943873,2594
1750240948.094468,2101
1750240948.0950015,1764
1750240948.095079,1589
1750240948.0951753,1324
1750240948.1555946,949
1750240948.1638858,900
1750240948.1640718,1459
1750240948.1657112,2295
1750240948.1657913,2764
1750240948.1658654,2642
1750240948.1659296,2185
1750240948.1659954,1796
1750240948.1660633,1578
1750240948.1661334,1360
1750240948.1662014,1029
1750240948.1663396,883
1750240948.1664073,1213
1750240948.166476,1877
1750240948.1665456,2367
1750240948.1666138,2414
1750240948.1666844,2094
1750240948.1667533,1694
1750240948.1668205,1376
1750240948.1668901,1131
1750240948.1669607,889
1750240948.1670308,854
1750240948.1670976,1237
1750240948.1671665,1918
1750240948.1672323,2430
1750240948.1672986,2501
1750240948.1673675,2193
1750240948.1674314,1786
1750240948.1674926,1450
1750240948.16756,1178
1750240948.1676292,886
1750240948.1690078,782
1750240948.169226,1157
1750240948.1701958,1942
1750240948.1702662,2601
1750240948.170344,2736
1750240948.1704113,2406
1750240948.1704798,1977
1750240948.1705477,1681
1750240948.1706142,1448
1750240948.170683,1096
1750240948.1707501,810
1750240948.170816,1026
1750240948.1708832,1816
1750240948.1709495,2629
1750240948.171017,2898
1750240948.1710858,2593
1750240948.1711528,2120
1750240948.1712208,1814
1750240948.1712918,1622
1750240948.1713583,1285
1750240948.1714249,881
1750240948.171491,891
1750240948.1715505,1537
1750240948.1716104,2381
1750240948.1716697,2784
1750240948.171729,2590
1750240948.1718037,2122
1750240948.171863,1766
1750240948.171923,1559
1750240948.1719823,1283
1750240948.1720421,923
1750240948.1721013,895
1750240948.172161,1465
1750240948.172402,2296
1750240948.1724677,2753
1750240948.172535,2620
1750240948.172603,2158
1750240948.1726696,1773
1750240948.172738,1553
1750240948.1728055,1311
1750240948.1728728,963
1750240948.17294,875
1750240948.1730077,1359
1750240948.1730762,2185
1750240948.1731431,2718
1750240948.1732094,2665
1750240948.173277,2229
1750240948.1733437,1828
1750240948.1734097,1601
1750240948.1734788,1380
1750240948.1735466,1025
1750240948.173614,855
1750240948.1736815,1243
1750240948.173759,2066
1750240948.1738257,2693
1750240948.1738925,2736
1750240948.1739597,2331
1750240948.1740272,1908
1750240948.174094,1665
1750240948.1741652,1468
1750240948.174232,1121
1750240948.1742992,874
1750240948.1743665,1152
1750240948.174434,1942
1750240948.1745007,2643
1750240948.1745694,2777
1750240948.1746354,2408
1750240948.1747026,1964
1750240948.1747692,1706
1750240948.1748357,1529
1750240948.1749022,1198
1750240948.1749694,889
1750240948.1750443,1070
1750240948.1825945,1834
1750240948.1826766,2622
1750240948.1827455,2859
1750240948.1828132,2529
1750240948.1828816,2047
1750240948.1829503,1752
1750240948.1830215,1589
1750240948.1830873,1286
1750240948.1831625,918
1750240948.2085354,956
1750240948.2119255,1609
1750240948.2136588,2421
1750240948.2137432,2768
1750240948.2138116,2528
1750240948.213882,2056
1750240948.213946,1732
1750240948.2140138,1559
1750240948.2140784,1285
1750240948.2141485,910
1750240948.214228,894
1750240948.2143064,1509
1750240948.2143767,2376
1750240948.2144475,2816
1750240948.214519,2628
1750240948.2145832,2139
1750240948.2146497,1790
1750240948.2147136,1627
1750240948.2147834,1388
1750240948.2148552,987
1750240948.2149293,863
1750240948.2150006,1383
1750240948.215102,2279
1750240948.2419446,2834
1750240948.242092,2736
1750240948.2421918,2253
1750240948.24229,1865
1750240948.2428913,1690
1750240948.2430215,1488
1750240948.3188605,1088
1750240948.3193161,860
1750240948.3195822,1237
1750240948.319844,2089
1750240948.3201058,2726
1750240948.3204198,2738
1750240948.320682,2296
1750240948.3209426,1873
1750240948.3212028,1660
1750240948.3214629,1484
1750240948.3510993,1125
1750240948.3552437,845
1750240948.4070892,1098
1750240948.407175,1883
1750240948.4072516,2593
1750240948.4073565,2739
1750240948.407432,2369
1750240948.408149,1901
1750240948.4267075,1617
1750240948.4437976,1455
1750240948.443882,1182
1750240948.443959,918
1750240948.4557006,1055
1750240948.4729989,1692
1750240948.4731104,2369
1750240948.473216,2605
1750240948.4733205,2356
1750240948.473424,1930
1750240948.4735048,1606
1750240948.4735801,1392
1750240948.4736543,1115
1750240948.4737337,861
1750240948.473811,1008
1750240948.473889,1680
1750240948.4750283,2438
1750240948.4751496,2737
1750240948.4752307,2500
1750240948.4753494,2049
1750240948.475428,1712
1750240948.4756339,1501
1750240948.4757128,1219
1750240948.4757903,885
1750240948.4758685,914
1750240948.475946,1532
1750240948.4764807,2369
1750240948.4952796,2800
1750240948.4955146,2637
1750240948.4956443,2166
1750240948.4957168,1791
1750240948.4963765,1591
1750240948.4978766,1360
1750240948.4979877,995
1750240948.498122,841
1750240948.5595963,1213
1750240948.610254,1934
1750240948.6103854,2439
1750240948.6108642,2450
1750240948.6123958,2100
1750240948.6179378,1726
1750240948.6529102,1460
1750240948.6778705,1204
1750240948.6816528,889
1750240948.6817794,828
1750240948.6818824,1319
1750240948.6820817,2170
1750240948.6821845,2752
1750240948.6823032,2732
1750240948.6824038,2295
1750240948.682504,1875
1750240948.6826034,1639
1750240948.6826866,1423
1750240948.6828477,1047
1750240948.682931,811
1750240948.683021,1158
1750240948.683103,2035
1750240948.6831837,2772
1750240948.6832662,2873
1750240948.683348,2452
1750240948.68343,2003
1750240948.683627,1783
1750240948.6837094,1618
1750240948.6837914,1229
1750240948.6838732,839
1750240948.6839552,986
1750240948.684038,1779
1750240948.6841197,2603
1750240948.6842015,2841
1750240948.6842837,2489
1750240948.6843655,2014
1750240948.6844482,1754
1750240948.6845305,1606
1750240948.684612,1273
1750240948.684694,877
1750240948.6847758,953
1750240948.6848578,1698
1750240948.6849313,2575
1750240948.6850207,2900
1750240948.6851144,2589
1750240948.6856778,2079
1750240948.7254817,1783
1750240948.7281415,1651
1750240948.731023,1365
1750240948.742407,938
1750240948.7424877,889
1750240948.7425625,1525
1750240948.7426372,2430
1750240948.7427125,2874
1750240948.7427866,2650
1750240948.7428603,2128
1750240948.7429335,1779
1750240948.7430065,1640
1750240948.7430797,1418
1750240948.7431526,1008
1750240948.7742634,853
1750240948.7936068,1335
1750240948.7938545,2199
1750240948.793926,2740
1750240948.7939866,2647
1750240948.7940583,2171
1750240948.794126,1776
1750240948.79422,1589
1750240948.8055751,1397
1750240948.805654,1035
1750240948.8057277,844
1750240948.805839,1212
1750240948.8069947,2007
1750240948.8073137,2593
1750240948.8075986,2602
1750240948.8079178,2193
1750240948.8082273,1789
1750240948.8084636,1562
1750240948.8087296,1367
1750240948.809039,1029
1750240948.8093522,820
1750240948.8095672,1139
1750240948.8098145,1933
1750240948.8101156,2593
1750240948.8105214,2685
1750240948.8108065,2305
1750240948.8110597,1874
1750240948.811313,1617
1750240948.811663,1428
1750240948.811823,1099
1750240948.812057,830
1750240948.8123899,1055
1750240948.8127275,1819
1750240948.8130434,2558
1750240948.8134582,2749
1750240948.8586748,2416
1750240948.8591523,1966
1750240948.9078588,1693
1750240948.9079576,1519
1750240948.9080307,1195
1750240948.908104,840
1750240948.9081774,931
1750240948.9082518,1633
1750240948.9083238,2452
1750240948.9171793,2771
1750240948.9261851,2508
1750240948.9272242,2043
1750240948.927535,1738
1750240948.9328957,1563
1750240948.9342775,1261
1750240948.9343555,874
1750240948.9344308,893
1750240948.9345028,1572
1750240948.934577,2477
1750240948.9346552,2903
1750240948.934734,2672
1750240948.9361136,2156
1750240948.9361959,1810
1750240948.9362702,1666
1750240948.9363446,1435
1750240948.9364183,1017
1750240948.9364927,846
1750240948.9365652,1296
1750240948.936639,2122
1750240948.936712,2655
1750240948.9367852,2593
1750240948.9368587,2157
1750240948.9369307,1774
1750240948.9370039,1564
1750240948.9370766,1341
1750240948.93715,977
1750240948.937223,820
1750240948.9372957,1234
1750240948.9373772,2055
1750240948.9374504,2635
1750240948.937524,2623
1750240948.937597,2200
1750240948.9376695,1795
1750240948.937743,1569
1750240948.9378157,1359
1750240948.937888,999
1750240948.9379497,795
1750240948.9380152,1172
1750240948.9380882,2048
1750240948.9381607,2753
1750240948.9382336,2822
1750240948.938304,2388
1750240948.9383762,1936
1750240948.9384623,1713
1750240948.9385278,1559
1750240948.938595,1201
1750240948.9386628,841
1750240948.9387293,970
1750240948.9387956,1689
1750240948.9388623,2436
1750240948.938929,2659
1750240948.9389956,2350
1750240948.9390662,1915
1750240948.9391367,1648
1750240948.9392085,1473
1750240948.9392807,1150
1750240948.9393523,817
1750240948.9394248,956
1750240948.9394891,1709
1750240948.9395485,2548
1750240948.9396076,2841
1750240948.9396713,2531
1750240948.9397438,2034
1750240948.9398158,1733
1750240948.9398882,1589
1750240948.9399598,1310
1750240948.9400322,917
1750240948.9401038,896
1750240948.9401755,1519
1750240948.9402475,2383
1750240948.940319,2806
1750240948.940391,2611
1750240948.9404614,2141
1750240948.9405332,1820
1750240948.940615,1665
1750240948.9406862,1407
1750240948.9407585,1005
1750240948.94083,923
1750240948.9409008,1499
1750240948.9409726,2404
1750240948.9410446,2907
1750240948.9411168,2742
1750240948.9411893,2228
1750240948.9412618,1852
1750240948.9413311,1688
1750240948.9414055,1461
1750240948.9414787,1023
1750240948.9415505,795
1750240948.9416223,1216
1750240948.941694,2110
1750240948.9582105,2748
1750240948.9645164,2731
1750240948.9646423,2270
1750240948.9647632,1860
1750240948.9648829,1670
1750240948.965001,1491
1750240948.9651735,1110
1750240948.968939,837
1750240948.969079,1134
1750240948.9691997,1957
1750240949.0091727,2652
1750240949.01023,2741
1750240949.0104723,2333
1750240949.0105817,1887
1750240949.0122237,1654
1750240949.0123146,1501
1750240949.0123992,1175
1750240949.0124817,862
1750240949.012564,1018
1750240949.0126638,1723
1750240949.0127463,2430
1750240949.0128295,2620
1750240949.0129123,2304
1750240949.0129943,1871
1750240949.0130913,1602
1750240949.0131745,1422
1750240949.013257,1106
1750240949.0133405,802
1750240949.0134232,981
1750240949.0135298,1762
1750240949.0136127,2594
1750240949.0136952,2857
1750240949.0137775,2519
1750240949.0138593,2021
1750240949.032813,1739
1750240949.0384045,1608
1750240949.0385365,1319
1750240949.0386124,900
1750240949.0386846,857
1750240949.0387564,1475
1750240949.0388284,2339
1750240949.0389037,2758
1750240949.038975,2551
1750240949.039046,2066
1750240949.0391176,1732
1750240949.0391884,1572
1750240949.039259,1327
1750240949.0393298,932
1750240949.0394013,823
1750240949.0394723,1336
1750240949.0395436,2188
1750240949.0396132,2702
1750240949.0396836,2607
1750240949.0397549,2147
1750240949.0398257,1755
1750240949.0398967,1553
1750240949.0399673,1354
1750240949.040038,1011
1750240949.040109,837
1750240949.0401804,1176
1750240949.040252,1902
1750240949.040322,2443
1750240949.0403926,2475
1750240949.0404632,2117
1750240949.0405335,1729
1750240949.0406039,1468
1750240949.040674,1237
1750240949.0407443,920
1750240949.0408144,791
1750240949.0408907,1192
1750240949.040961,2017
1750240949.0410311,2655
1750240949.0411012,2709
1750240949.041172,2310
1750240949.0412426,1880
1750240949.0413132,1624
1750240949.0413835,1419
1750240949.041454,1070
1750240949.0415242,807
1750240949.0415943,1077
1750240949.0416646,1899
1750240949.0417352,2672
1750240949.0765743,2862
1750240949.177494,2506
1750240949.2089198,2040
1750240949.239415,1764
1750240949.2395313,1600
1750240949.2466953,1286
1750240949.2467782,914
1750240949.2553225,930
1750240949.2554393,1511
1750240949.255642,2237
1750240949.2557478,2567
1750240949.2558513,2394
1750240949.2559545,1992
1750240949.2560575,1656
1750240949.2561631,1423
1750240949.2562656,1141
1750240949.256369,859
1750240949.2564719,945
1750240949.2565749,1558
1750240949.2566779,2319
1750240949.2567806,2673
1750240949.2568827,2500
1750240949.256985,2065
1750240949.257087,1702
1750240949.2571974,1465
1750240949.2572997,1195
1750240949.2574024,886
1750240949.2575042,915
1750240949.2576065,1518
1750240949.2577088,2373
1750240949.2578106,2851
1750240949.2579126,2728
1750240949.258081,2267
1750240949.2581847,1883
1750240949.2582877,1674
1750240949.2583895,1438
1750240949.258504,1045
1750240949.2586064,831
1750240949.2587097,1165
1750240949.2588115,1920
1750240949.2589135,2504
1750240949.2590158,2562
1750240949.2591279,2204
1750240949.2592802,1802
1750240949.2593842,1528
1750240949.2595632,1290
1750240949.259666,963
1750240949.2597692,813
1750240949.259871,1188
1750240949.259973,1995
1750240949.260075,2639
1750240949.2601767,2719
1750240949.2602782,2338
1750240949.2603796,1899
1750240949.2604814,1620
1750240949.2605567,1408
1750240949.2606306,1070
1750240949.2607043,811
1750240949.2607787,1046
1750240949.2608526,1811
1750240949.2609265,2551
1750240949.2610004,2761
1750240949.2610831,2446
1750240949.2611618,1992
1750240949.2612352,1687
1750240949.2613091,1491
1750240949.261385,1189
1750240949.261462,878
1750240949.2615387,970
1750240949.2616184,1606
1750240949.2616963,2352
1750240949.261783,2674
1750240949.2639318,2473
1750240949.2640135,2034
1750240949.302342,1678
1750240949.302434,1451
1750240949.3039577,1188
1750240949.3040395,904
1750240949.3041084,941
1750240949.3041747,1475
1750240949.304251,2182
1750240949.304391,2547
1750240949.3044953,2428
1750240949.304599,2036
1750240949.3047438,1674
1750240949.3048475,1412
1750240949.3049498,1130
1750240949.3050528,840
1750240949.3051746,901
1750240949.3052819,1517
1750240949.3053892,2360
1750240949.321738,2818
1750240949.3230217,2688
1750240949.3231013,2233
1750240949.3231783,1853
1750240949.3232508,1626
1750240949.3233237,1365
1750240949.3233957,977
1750240949.3234687,842
1750240949.3235404,1310
1750240949.323612,2174
1750240949.3236833,2770
1750240949.3237553,2757
1750240949.3238268,2329
1750240949.3240929,1933
1750240949.3241644,1717
1750240949.324236,1495
1750240949.3243077,1097
1750240949.3243783,840
1750240949.324449,1152
1750240949.3245199,1965
1750240949.324591,2641
1750240949.324662,2738
1750240949.324733,2360
1750240949.3248036,1935
1750240949.3248746,1672
1750240949.324946,1449
1750240949.3250167,1076
1750240949.3251023,809
1750240949.3251672,1097
1750240949.3252263,1942
1750240949.3252852,2715
1750240949.3253536,2883
1750240949.3254247,2498
1750240949.3254955,2014
1750240949.3255675,1735
1750240949.3256383,1573
1750240949.3257093,1264
1750240949.3257802,916
1750240949.325851,983
1750240949.325922,1623
1750240949.3259966,2372
1750240949.326067,2674
1750240949.3261383,2447
1750240949.326209,2013
1750240949.3262796,1690
1750240949.3263507,1478
1750240949.3264215,1182
1750240949.3264923,862
1750240949.3265634,930
1750240949.326634,1566
1750240949.3267045,2361
1750240949.3267753,2721
1750240949.326846,2520
1750240949.326917,2063
1750240949.326988,1716
1750240949.3270583,1511
1750240949.3271317,1243
1750240949.3272023,898
1750240949.327273,897
1750240949.327344,1505
1750240949.3274148,2381
1750240949.3274887,2853
1750240949.3275597,2698
1750240949.3276305,2214
1750240949.3277018,1842
1750240949.3277729,1655
1750240949.3278444,1418
1750240949.32792,1018
1750240949.327991,848
1750240949.328064,1290
1750240949.3281348,2147
1750240949.3282058,2745
1750240949.328277,2734
1750240949.3283482,2303
1750240949.3306668,1894
1750240949.3950577,1666
1750240949.412816,1460
1750240949.4132173,1101
1750240949.413298,860
1750240949.4133797,1121
1750240949.4134593,1833
1750240949.4135406,2436
1750240949.4136207,2544
1750240949.4136999,2224
1750240949.413779,1818
1750240949.4138587,1520
1750240949.41403,1280
1750240949.4141097,972
1750240949.4141893,810
1750240949.4142675,1136
1750240949.4143467,1912
1750240949.4144332,2590
1750240949.4145012,2735
1750240949.4145696,2397
1750240949.4146369,1946
1750240949.4147131,1635
1750240949.4147916,1427
1750240949.4148705,1132
1750240949.4149497,866
1750240949.4150286,1011
1750240949.422394,1668
1750240949.4523468,2391
1750240949.4524965,2678
1750240949.4526591,2458
1750240949.453371,2025
1750240949.4586446,1681
1750240949.4587786,1454
1750240949.4588802,1173
1750240949.4589868,875
1750240949.4590898,925
1750240949.459187,1494
1750240949.4593024,2231
1750240949.4593978,2605
1750240949.4594853,2470
1750240949.4595847,2058
1750240949.4597068,1691
1750240949.4598017,1434
1750240949.4599023,1148
1750240949.4599996,840
1750240949.4601147,884
1750240949.4602134,1501
1750240949.46031,2354
1750240949.4604142,2818
1750240949.460515,2685
1750240949.4606266,2219
1750240949.460727,1834
1750240949.4608257,1617
1750240949.4609308,1365
1750240949.4610722,980
1750240949.461164,846
1750240949.4612508,1317
1750240949.461334,2184
1750240949.4614282,2776
1750240949.4615185,2754
1750240949.4616075,2319
1750240949.4616864,1919
1750240949.4617789,1699
1750240949.4618487,1471
1750240949.4619193,1072
1750240949.4619875,838
1750240949.4620557,1192
1750240949.4621263,2039
1750240949.4621937,2716
1750240949.4622774,2786
1750240949.4623551,2378
1750240949.4624414,1942
1750240949.462532,1695
1750240949.4626112,1495
1750240949.4627025,1130
1750240949.46278,849
1750240949.4628565,1100
1750240949.4629388,1894
1750240949.4630175,2625
1750240949.4631038,2784
1750240949.4631934,2421
1750240949.4632747,1961
1750240949.4633608,1679
1750240949.463431,1489
1750240949.4635031,1163
1750240949.4635801,855
1750240949.4636602,1011
1750240949.4637473,1739
1750240949.4638407,2518
1750240949.4639273,2787
1750240949.464013,2501
1750240949.464092,2027
1750240949.464169,1692
1750240949.464246,1493
1750240949.4643242,1218
1750240949.464503,901
1750240949.4645867,925
1750240949.4646642,1475
1750240949.4647553,2197
1750240949.4648461,2564
1750240949.4649467,2434
1750240949.4650235,2028
1750240949.4651282,1659
1750240949.4652004,1407
1750240949.4652872,1151
1750240949.4653718,878
1750240949.4654558,900
1750240949.465539,1406
1750240949.4656208,2121
1750240949.4656982,2529
1750240949.4657753,2449
1750240949.465851,2062
1750240949.4659193,1682
1750240949.465994,1406
1750240949.4660816,1132
1750240949.4661686,832
1750240949.466247,841
1750240949.466325,1411
1750240949.4664164,2282
1750240949.466512,2823
1750240949.4665892,2758
1750240949.4666805,2307
1750240949.4667664,1899
1750240949.4668453,1664
1750240949.466924,1428
1750240949.4670122,1040
1750240949.4670868,830
1750240949.504231,1197
1750240949.504315,2034
1750240949.5043926,2699
1750240949.5044913,2775
1750240949.5062027,2388
1750240949.5213308,1965
1750240949.521409,1704
1750240949.5215244,1482
1750240949.5216026,1110
1750240949.5216746,828
1750240949.5217478,1052
1750240949.5218337,1791
1750240949.5219064,2492
1750240949.521967,2689
1750240949.5220344,2396
1750240949.5221064,1960
1750240949.5221786,1637
1750240949.522251,1415
1750240949.522323,1128
1750240949.5223947,888
1750240949.522466,1034
1750240949.5225384,1640
1750240949.5226123,2290
1750240949.5226839,2545
1750240949.5227568,2350
1750240949.5228288,1948
1750240949.5229013,1591
1750240949.5229735,1326
1750240949.5230458,1044
1750240949.5231175,828
1750240949.52319,1007
1750240949.523262,1677
1750240949.5233338,2429
1750240949.5234056,2748
1750240949.5234733,2543
1750240949.5235324,2099
1750240949.5236044,1740
1750240949.5236762,1506
1750240949.523748,1219
1750240949.5238197,892
1750240949.523891,921
1750240949.523962,1539
1750240949.5240338,2396
1750240949.524105,2857
1750240949.5241752,2714
1750240949.5242462,2251
1750240949.5243185,1887
1750240949.5243902,1688
1750240949.524462,1424
1750240949.5245411,1005
1750240949.5246124,845
1750240949.524686,1314
1750240949.5247579,2187
1750240949.5248334,2775
1750240949.5249183,2741
1750240949.5250027,2298
1750240949.5250776,1898
1750240949.5287492,1676
1750240949.5288274,1444
1750240949.5289001,1055
1750240949.5289717,858
1750240949.5290437,1261
1750240949.5291152,2132
1750240949.5291862,2795
1750240949.5292573,2835
1750240949.5293286,2401
1750240949.5294,1953
1750240949.5294707,1705
1750240949.5295415,1521
1750240949.529612,1182
1750240949.529683,901
1750240949.529754,1085
1750240949.5298252,1766
1750240949.529896,2423
1750240949.5299578,2612
1750240949.5300264,2332
1750240949.5300972,1910
1750240949.5301678,1591
1750240949.5302389,1366
1750240949.5303097,1085
1750240949.5303802,880
1750240949.5304568,1092
1750240949.5305283,1770
1750240949.5305984,2452
1750240949.5306695,2678
1750240949.5307403,2420
1750240949.5308108,1984
1750240949.530882,1647
1750240949.5309525,1416
1750240949.531023,1125
1750240949.551331,861
1750240949.5516999,1013
1750240949.5704637,1713
1750240949.5705807,2516
1750240949.5706866,2846
1750240949.5729663,2607
1750240949.5733197,2140
1750240949.5736518,1812
1750240949.5739746,1622
1750240949.5743034,1324
1750240949.574648,935
1750240949.5749824,923
1750240949.5753803,1569
1750240949.5757246,2480
1750240949.5760663,2950
1750240949.5764112,2762
1750240949.5767534,2263
1750240949.5770907,1918
1750240949.5774348,1757
1750240949.5777879,1485
1750240949.5781183,1017
1750240949.5837839,840
1750240949.6116056,1368
1750240949.6290214,2321
1750240949.6329956,2921
1750240949.6330838,2818
1750240949.63316,2304
1750240949.633236,1904
1750240949.6333342,1735
1750240949.633416,1527
1750240949.6334913,1090
1750240949.6335816,823
1750240949.633657,1200
1750240949.6337318,2098
1750240949.6338384,2791
1750240949.6339133,2826
1750240949.633988,2365
1750240949.6340625,1908
1750240949.634137,1682
1750240949.6342373,1524
1750240949.6343124,1186
1750240949.6343875,889
1750240949.6344614,1068
1750240949.6397665,1757
1750240949.6398706,2411
1750240949.6399555,2573
1750240949.6400378,2264
1750240949.6401215,1837
1750240949.6402035,1539
1750240949.6402855,1335
1750240949.6403675,1054
1750240949.6404505,848
1750240949.6405327,1086
1750240949.6406164,1808
1750240949.640698,2507
1750240949.6632135,2701
1750240949.6778135,2393
1750240949.6779113,1940
1750240949.6779904,1631
1750240949.678086,1429
1750240949.6781704,1130
1750240949.6783018,832
1750240949.6783848,968
1750240949.678486,1681
1750240949.6785684,2495
1750240949.678759,2809
1750240949.680569,2540
1750240949.6806743,2062
1750240949.6809971,1747
1750240949.6864493,1573
1750240949.699021,1279
1750240949.699182,886
1750240949.6992903,878
1750240949.6993954,1533
1750240949.6994998,2445
1750240949.6996105,2904
1750240949.6997137,2707
1750240949.6998174,2203
1750240949.6999204,1851
1750240949.7000234,1684
1750240949.7001262,1418
1750240949.70023,971
1750240949.700333,809
1750240949.7004366,1321
1750240949.701808,2232
1750240949.7258363,2807
1750240949.7275543,2717
1750240949.727693,2231
1750240949.7280986,1841
1750240949.7294981,1664
1750240949.729611,1453
1750240949.729717,1039
1750240949.729838,803
1750240949.7300582,1185
1750240949.7302966,2049
1750240949.7305858,2694
1750240949.7307096,2702
1750240949.7308156,2250
1750240949.7315404,1818
1750240949.7316556,1597
1750240949.742016,1411
1750240949.8037214,1052
1750240949.805166,811
1750240949.8064115,1139
1750240949.806495,1996
1750240949.8089175,2725
1750240949.8093572,2828
1750240949.8139262,2403
1750240949.8139913,1924
1750240949.814064,1670
1750240949.814136,1522
1750240949.8142076,1209
1750240949.8142793,879
1750240949.8382664,985
1750240949.910717,1644
1750240949.9131565,2359
1750240949.9159455,2603
1750240949.9180973,2335
1750240949.9181712,1900
1750240949.9182417,1590
1750240949.9183109,1380
1750240949.9183798,1077
1750240949.9184744,796
1750240949.9185445,965
1750240949.9186144,1709
1750240949.9186854,2531
1750240949.918754,2829
1750240949.9188232,2537
1750240949.9188924,2040
1750240949.918961,1716
1750240949.9190295,1547
1750240949.9190965,1270
1750240949.9191635,892
1750240949.9192295,879
1750240949.919296,1504
1750240949.9193661,2379
1750240949.919541,2824
1750240949.919618,2636
1750240949.91969,2142
1750240949.919766,1786
1750240949.9198384,1619
1750240949.9199111,1379
1750240949.9199836,975
1750240949.9200559,830
1750240949.920128,1305
1750240949.9201996,2152
1750240949.9202716,2691
1750240949.9203439,2618
1750240949.9204156,2164
1750240949.920488,1773
1750240949.9205601,1568
1750240949.9206316,1346
1750240949.920703,969
1750240949.9207754,800
1750240949.9208486,1231
1750240949.9209206,2100
1750240949.9209924,2726
1750240949.9210641,2718
1750240949.9211364,2255
1750240949.9212084,1809
1750240949.9212806,1576
1750240949.9213524,1392
1750240949.9214246,1043
1750240949.9214966,793
1750240949.921569,1072
1750240949.921641,1861
1750240949.92172,2555
1750240949.9218123,2685
1750240949.9218848,2312
1750240949.9285018,1854
1750240949.92869,1574
1750240949.9288337,1397
1750240949.9289706,1101
1750240949.956446,831
1750240949.9566677,986
1750240949.9568045,1647
