1749981479.0206618,1391
1749981479.0880215,1032
1749981479.184295,729
1749981479.1843758,528
1749981479.1844485,559
1749981479.191775,886
1749981479.196244,1383
1749981479.2064512,1774
1749981479.2066329,1920
1749981479.2067385,1805
1749981479.206833,1512
1749981479.2069504,1150
1749981479.207021,833
1749981479.2071247,609
1749981479.2072139,587
1749981479.2073164,850
1749981479.2074218,1308
1749981479.2074957,1708
1749981479.207597,1890
1749981479.2076733,1822
1749981479.2078078,1562
1749981479.2078757,1208
1749981479.2079632,881
1749981479.208059,646
1749981479.2086205,602
1749981479.208706,849
1749981479.2087765,1319
1749981479.2088351,1759
1749981479.2089043,1975
1749981479.2089756,1931
1749981479.2090464,1681
1749981479.209118,1332
1749981479.2091897,994
1749981479.2092695,732
1749981479.2093458,627
1749981479.2094169,809
1749981479.2094932,1252
1749981479.2095659,1728
1749981479.2096367,2001
1749981479.2101097,2010
1749981479.21018,1790
1749981479.210239,1454
1749981479.2103078,1110
1749981479.2103784,831
1749981479.210451,680
1749981479.2105215,798
1749981479.2105918,1198
1749981479.2106712,1685
1749981479.2107317,1997
1749981479.210791,2045
1749981479.2108617,1847
1749981479.210932,1517
1749981479.2110026,1170
1749981479.2110727,892
1749981479.211143,726
1749981479.211213,803
1749981479.2112832,1159
1749981479.2113533,1642
1749981479.2114234,1989
1749981479.2114944,2090
1749981479.2115936,1936
1749981479.2116654,1624
1749981479.211736,1264
1749981479.2118063,961
1749981479.211877,762
1749981479.2119474,789
1749981479.2120178,1103
1749981479.2120886,1581
1749981479.2121606,1959
1749981479.2122316,2099
1749981479.212302,1983
1749981479.2123718,1691
1749981479.2124422,1331
1749981479.212512,1017
1749981479.2125874,797
1749981479.2126572,787
1749981479.2149553,1072
1749981479.2191513,1558
1749981479.2192364,1976
1749981479.2193146,2153
1749981479.219393,2063
1749981479.2194695,1783
1749981479.219546,1427
1749981479.2196226,1109
1749981479.2196991,875
1749981479.2197752,815
1749981479.2198515,1039
1749981479.219927,1494
1749981479.2200034,1935
1749981479.2200797,2162
1749981479.2201557,2125
1749981479.2202315,1871
1749981479.220307,1514
1749981479.2203832,1175
1749981479.2204657,920
1749981479.2205412,822
1749981479.2206173,994
1749981479.2206929,1411
1749981479.220767,1860
1749981479.2208257,2125
1749981479.2209015,2142
1749981479.2209768,1927
1749981479.2210526,1579
1749981479.2211516,1217
1749981479.2212312,938
1749981479.2213073,811
1749981479.221384,960
1749981479.2214599,1376
1749981479.221537,1857
1749981479.2216241,2157
1749981479.2217011,2201
1749981479.2217777,2005
1749981479.2218542,1673
1749981479.2219305,1318
1749981479.2220078,1032
1749981479.2220876,866
1749981479.2221642,948
1749981479.222241,1310
1749981479.222317,1790
1749981479.2223935,2127
1749981479.2224743,2218
1749981479.2225502,2061
1749981479.2226262,1750
1749981479.2226982,1392
1749981479.2227561,1090
1749981479.2228281,891
1749981479.231,922
1749981479.2313006,1245
1749981479.2314951,1730
1749981479.2322102,2110
1749981479.232307,2249
1749981479.2323787,2128
1749981479.2324502,1827
1749981479.2325215,1458
1749981479.232593,1139
1749981479.2326653,920
1749981479.232738,907
1749981479.23281,1174
1749981479.232869,1631
1749981479.2329347,2028
1749981479.2330058,2210
1749981479.2330785,2141
1749981479.2331498,1874
1749981479.2332215,1508
1749981479.2371986,1171
1749981479.2373128,933
1749981479.237418,895
1749981479.237522,1148
1749981479.23764,1615
1749981479.237744,2046
1749981479.2378478,2254
1749981479.2379515,2207
1749981479.2530575,1957
1749981479.2531662,1607
1749981479.2532656,1269
1749981479.2542865,1010
1749981479.2544172,910
1749981479.2545145,1091
1749981479.254611,1524
1749981479.2561638,1983
1749981479.256269,2244
1749981479.2564757,2248
1749981479.256557,2026
1749981479.2566378,1685
1749981479.2567184,1334
1749981479.25679,1053
1749981479.2738178,910
1749981479.2870996,1041
1749981479.2881567,1447
1749981479.288246,1925
1749981479.2883193,2222
1749981479.2883916,2260
1749981479.296167,2063
1749981479.2969646,1738
1749981479.2989478,1393
1749981479.2992516,1107
1749981479.308154,933
1749981479.3083036,1010
1749981479.3084333,1375
1749981479.308563,1863
1749981479.3169067,2202
1749981479.3169863,2282
1749981479.3170593,2112
1749981479.317132,1798
1749981479.317205,1449
1749981479.3172767,1156
1749981479.3173494,958
1749981479.3174212,983
1749981479.3174942,1300
1749981479.3175662,1786
1749981479.3176384,2167
1749981479.3177102,2302
1749981479.3177812,2175
1749981479.3178535,1874
1749981479.3179266,1514
1749981479.3179996,1202
1749981479.3180726,981
1749981479.318145,965
1749981479.3182259,1241
1749981479.318481,1714
1749981479.318686,2120
1749981479.3189144,2292
1749981479.319019,2203
1749981479.342513,1927
1749981479.3898687,1574
1749981479.3919003,1253
1749981479.3920214,1015
1749981479.3921275,957
1749981479.3922307,1189
1749981479.3923335,1650
1749981479.3924584,2088
1749981479.3987646,2304
1749981479.3988335,2257
1749981479.4154716,2004
1749981479.4220984,1653
1749981479.4222178,1315
1749981479.42229,1051
1749981479.422361,945
1749981479.4224324,1128
1749981479.422501,1569
1749981479.4225664,2034
1749981479.4226315,2290
1749981479.42272,2279
1749981479.4227872,2045
1749981479.4228578,1702
1749981479.422928,1365
1749981479.423001,1098
1749981479.423066,963
1749981479.4231312,1093
1749981479.4231958,1496
1749981479.4232605,1975
1749981479.4233253,2277
1749981479.4233902,2318
1749981479.4234552,2115
1749981479.4235215,1778
1749981479.4235857,1421
1749981479.4489923,1131
1749981479.4490762,959
1749981479.449145,1042
1749981479.4492135,1410
1749981479.4492798,1897
1749981479.4493456,2233
1749981479.4494119,2313
1749981479.452014,2143
1749981479.4520898,1825
1749981479.4521573,1468
1749981479.4522238,1168
1749981479.4522886,967
1749981479.452354,998
1749981479.452419,1323
1749981479.4524872,1812
1749981479.4525518,2186
1749981479.4526167,2309
1749981479.452682,2175
1749981479.4527404,1878
1749981479.4621527,1527
1749981479.46227,1219
1749981479.4649205,994
1749981479.4649897,972
1749981479.4650574,1249
1749981479.466238,1730
1749981479.4663086,2141
1749981479.4663744,2307
1749981479.4664407,2207
1749981479.466507,1925
1749981479.4665728,1577
1749981479.4666348,1267
1749981479.4667974,1033
1749981479.4668636,971
1749981479.4669292,1198
1749981479.4669952,1659
1749981479.468029,2098
1749981479.4787645,2311
1749981479.4803946,2256
1749981479.480468,1997
1749981479.480536,1651
1749981479.4806042,1327
1749981479.4806714,1072
1749981479.4807377,963
1749981479.4808056,1135
1749981479.4808714,1571
1749981479.4809372,2036
1749981479.4810028,2291
1749981479.4810677,2274
1749981479.4811344,2036
1749981479.4811995,1698
1749981479.51887,1369
1749981479.518954,1102
1749981479.519024,959
1749981479.519094,1090
1749981479.5191631,1510
1749981479.5272024,2008
1749981479.5272818,2309
1749981479.5273478,2330
1749981479.527415,2112
1749981479.5274808,1785
1749981479.5275462,1452
1749981479.527611,1175
1749981479.5276763,994
1749981479.5277424,1062
1749981479.5278091,1431
1749981479.5278747,1931
1749981479.52794,2273
1749981479.5313768,2344
1749981479.5314522,2161
1749981479.5315177,1845
1749981479.5315926,1501
1749981479.5316598,1209
1749981479.5317245,1003
1749981479.5317895,1019
1749981479.5318544,1335
1749981479.531919,1821
1749981479.5319855,2196
1749981479.53205,2319
1749981479.5321155,2181
1749981479.5321803,1880
1749981479.5322444,1529
1749981479.532309,1227
1749981479.5323744,1011
1749981479.532439,998
1749981479.5325043,1277
1749981479.53257,1753
1749981479.532635,2155
1749981479.532698,2316
1749981479.5327563,2214
1749981479.5332,1926
1749981479.5332677,1566
1749981479.533334,1246
1749981479.533399,1011
1749981479.5334637,957
1749981479.5335288,1192
1749981479.5335944,1653
1749981479.5336592,2086
1749981479.5337243,2293
1749981479.533789,2236
1749981479.5338547,1975
1749981479.5339203,1625
1749981479.5339854,1297
1749981479.5340502,1045
1749981479.5341148,950
1749981479.53418,1138
1749981479.5342445,1580
1749981479.534309,2043
1749981479.5343735,2296
1749981479.5344384,2281
1749981479.5345037,2043
1749981479.5345683,1697
1749981479.5346327,1356
1749981479.5433595,1085
1749981479.5933542,945
1749981479.5943909,1077
1749981479.596131,1484
1749981479.5962205,1965
1749981479.596302,2261
1749981479.5963826,2291
1749981479.5964632,2080
1749981479.5969136,1745
1749981479.5978253,1396
1749981479.5980005,1116
1749981479.5981412,949
1749981479.598319,1034
1749981479.5984595,1404
1749981479.5985973,1890
1749981479.5987525,2224
1749981479.5988855,2301
1749981479.5991685,2129
1749981479.599412,1810
1749981479.5995102,1454
1749981479.5996373,1156
1749981479.5997367,958
1749981479.5998309,993
1749981479.5999265,1322
1749981479.6000545,1811
1749981479.6001484,2186
1749981479.600257,2313
1749981479.6003516,2180
1749981479.6004453,1879
1749981479.614513,1520
1749981479.6202245,1209
1749981479.6203077,989
1749981479.62126,979
1749981479.6213355,1262
1749981479.6291115,1738
1749981479.629189,2139
1749981479.6292624,2302
1749981479.6293342,2205
1749981479.6294107,1926
1749981479.6294825,1571
1749981479.629554,1250
1749981479.629626,1009
1749981479.6296978,951
1749981479.6297717,1185
1749981479.6299734,1649
1749981479.6300457,2084
1749981479.6301174,2294
1749981479.630189,2240
1749981479.6302607,1980
1749981479.630333,1627
1749981479.630405,1299
1749981479.6304767,1051
1749981479.6305485,955
1749981479.63062,1130
1749981479.6306915,1545
1749981479.6307511,1984
1749981479.6308155,2235
1749981479.6308863,2239
1749981479.6309576,2018
1749981479.6310291,1673
1749981479.6311004,1323
1749981479.6311727,1052
1749981479.6312447,932
1749981479.631316,1088
1749981479.6313984,1506
1749981479.631465,1979
1749981479.6315324,2265
1749981479.7353415,2293
1749981479.7969697,2087
1749981479.797225,1757
1749981479.797361,1414
1749981479.7974916,1141
1749981479.7976208,985
1749981479.7980225,1075
1749981479.798159,1440
1749981479.8052197,1916
1749981479.80537,2246
1749981479.8063118,2327
1749981479.8083656,2159
1749981479.8084803,1841
1749981479.80859,1485
1749981479.8086984,1192
1749981479.8088245,1001
1749981479.8089478,1036
1749981479.8090558,1354
1749981479.8091633,1826
1749981479.8092718,2189
1749981479.8093796,2312
1749981479.8097565,2179
1749981479.809867,1874
1749981479.8099756,1508
1749981479.8100839,1195
1749981479.8101914,982
1749981479.810312,984
1749981479.810419,1278
1749981479.8105264,1757
1749981479.8106346,2154
1749981479.810743,2313
1749981479.8117654,2213
1749981479.8128545,1934
1749981479.8225799,1580
1749981479.8236265,1260
1749981479.8237102,1019
1749981479.8237886,959
1749981479.8238661,1191
1749981479.8242657,1650
1749981479.8246346,2079
1749981479.824712,2287
1749981479.8247862,2235
1749981479.8248453,1981
1749981479.8249526,1632
1749981479.8250303,1300
1749981479.8251011,1043
1749981479.8252268,948
1749981479.8253057,1135
1749981479.8253844,1571
1749981479.8254628,2022
1749981479.825541,2272
1749981479.8256197,2267
1749981479.8256981,2042
1749981479.8257756,1702
1749981479.825853,1358
1749981479.825931,1086
1749981479.8260143,957
1749981479.8260918,1104
1749981479.8261693,1519
1749981479.826247,1989
1749981479.8263242,2264
1749981479.8264027,2279
1749981479.82648,2070
1749981479.826558,1750
1749981479.8266366,1417
1749981479.8267052,1142
1749981479.8267663,974
1749981479.8268452,1067
1749981479.8269227,1458
1749981479.8270013,1970
1749981479.827078,2313
1749981479.8271563,2376
1749981479.8272345,2180
1749981479.8273122,1848
1749981479.8273907,1495
1749981479.8274686,1197
1749981479.8275468,986
1749981479.827624,999
1749981479.8277023,1312
1749981479.8277802,1797
1749981479.8278587,2173
1749981479.8279366,2293
1749981479.8280144,2148
1749981479.8336332,1840
1749981479.8337815,1487
1749981479.8373647,1185
1749981479.8374765,968
1749981479.8375797,952
1749981479.837683,1228
1749981479.8377903,1703
1749981479.8378937,2106
1749981479.837996,2271
1749981479.838099,2172
1749981479.8382015,1891
1749981479.8383174,1541
1749981479.8384202,1228
1749981479.8385224,994
1749981479.838625,938
1749981479.8387275,1171
1749981479.8388307,1631
1749981479.8389108,2061
1749981479.8389847,2263
1749981479.8390584,2203
1749981479.839133,1944
1749981479.8392065,1600
1749981479.8392806,1279
1749981479.8393538,1029
1749981479.8394272,931
1749981479.8395014,1114
1749981479.839575,1548
1749981479.839649,1999
1749981479.839723,2244
1749981479.8398008,2228
1749981479.8398747,1997
1749981479.8399487,1663
1749981479.840022,1332
1749981479.8400967,1069
1749981479.8401704,938
1749981479.8402445,1076
1749981479.8403184,1484
1749981479.840392,1957
1749981479.8404655,2243
1749981479.84054,2270
1749981479.8406136,2064
1749981479.8406875,1737
1749981479.8407586,1399
1749981479.840819,1128
1749981479.8408926,967
1749981479.8409667,1050
1749981479.84104,1409
1749981479.8411133,1880
1749981479.8411868,2204
1749981479.8412604,2281
1749981479.841334,2115
1749981479.8414075,1802
1749981479.8414812,1451
1749981479.8416576,1157
1749981479.8887224,965
1749981479.8921258,1003
1749981479.8924131,1328
1749981479.8924894,1806
1749981479.8925877,2166
1749981479.8926628,2282
1749981479.8927374,2146
1749981479.8928008,1852
1749981479.8928797,1507
1749981479.8932016,1211
1749981479.9112837,1002
1749981479.9152708,995
1749981479.9153469,1278
1749981479.9154322,1751
1749981479.9156327,2147
1749981479.915706,2303
1749981479.9157774,2201
1749981479.9158475,1922
1749981479.9159188,1577
1749981479.9159908,1270
1749981479.916348,1038
1749981479.916485,979
1749981479.9190507,1206
1749981479.91913,1660
1749981479.9192023,2089
1749981479.919275,2294
1749981479.9193459,2234
1749981479.9194176,1973
1749981479.9194896,1626
1749981479.919562,1307
1749981479.9196336,1064
1749981479.9197962,970
1749981479.919869,1149
1749981479.9199402,1576
1749981479.9200115,2025
1749981479.9200833,2274
1749981479.9201548,2262
1749981479.9202254,2030
1749981479.9202964,1690
1749981479.9203727,1358
1749981479.920444,1099
1749981479.9205153,971
1749981479.9205873,1104
1749981479.9206572,1501
1749981479.920729,1961
1749981479.9207904,2241
1749981479.9208574,2266
1749981479.9209282,2060
1749981479.9209998,1731
1749981479.9210646,1391
1749981479.9211357,1117
1749981479.9212067,956
1749981479.921278,1043
1749981479.9213483,1410
1749981479.9214194,1886
1749981479.9214916,2209
1749981479.9215736,2279
1749981479.9216459,2107
1749981479.9217172,1795
1749981479.9217896,1452
1749981479.921861,1166
1749981479.9219325,976
1749981479.9220037,1014
1749981479.922075,1342
1749981479.9221463,1824
1749981479.9222183,2186
1749981479.9222891,2300
1749981479.9223695,2159
1749981479.9224422,1860
1749981479.9225168,1510
1749981479.9225886,1211
1749981479.9226599,1000
1749981479.9227238,991
1749981479.9227831,1270
1749981479.922854,1740
1749981479.922925,2136
1749981479.9229963,2299
1749981479.923068,2204
1749981479.9231398,1925
1749981479.9232116,1570
1749981479.9232826,1252
1749981479.923354,1019
1749981479.9234252,968
1749981479.9234965,1205
1749981479.9235673,1661
1749981479.923638,2085
1749981479.9238966,2288
1749981479.9239686,2234
1749981479.9240396,1981
1749981479.9241111,1639
1749981479.9241822,1317
1749981479.9242558,1068
1749981479.9243312,971
1749981479.9244022,1152
1749981479.9244723,1582
1749981479.9245424,2031
1749981479.9246137,2278
1749981479.9246833,2266
1749981479.924754,2035
1749981479.9248166,1697
1749981479.9253554,1364
1749981479.9416952,1101
1749981479.9417777,967
1749981479.9418533,1098
1749981479.9419801,1497
1749981479.9420698,1963
1749981479.9422429,2250
1749981479.942341,2277
1749981479.9431,2069
1749981479.943203,1738
1749981479.943285,1398
1749981479.943366,1127
1749981479.94344,969
1749981479.9435134,1055
1749981479.943587,1419
1749981479.943676,1894
1749981479.943749,2220
1749981479.9438214,2293
1749981479.9438946,2121
1749981479.943973,1805
1749981479.9440455,1456
1749981479.944132,1164
1749981479.9442043,971
1749981479.9442775,1010
1749981479.9443502,1344
1749981479.9445853,1833
1749981479.9446838,2199
1749981479.9447775,2310
1749981479.9448664,2164
1749981479.945254,1865
1749981479.9588935,1521
1749981479.9589763,1225
1749981479.9590535,1007
1749981479.95913,989
1749981479.9592066,1270
1749981479.9592817,1755
1749981479.9646196,2164
1749981479.9651206,2324
1749981479.9661977,2217
1749981479.9666398,1933
1749981479.967166,1587
1749981479.9672668,1279
1749981479.9673388,1041
1749981479.96741,974
1749981479.9674816,1199
1749981479.9675746,1659
1749981479.9676456,2094
1749981479.9677525,2300
1749981479.9678242,2241
1749981479.9678955,1983
1749981479.9679668,1641
1749981479.968038,1318
1749981479.9681094,1061
1749981480.0921085,955
1749981480.1385543,1138
1749981480.1390204,1585
1749981480.1420186,2050
1749981480.142386,2297
1749981480.1427383,2271
1749981480.190027,2031
1749981480.1976435,1697
1749981480.1999507,1374
1749981480.2000623,1114
1749981480.2102382,972
1749981480.216523,1093
1749981480.217979,1487
1749981480.2180989,1952
1749981480.2181742,2234
1749981480.2182672,2256
1749981480.2183404,2046
1749981480.2184124,1720
1749981480.2184849,1384
1749981480.218579,1112
1749981480.218653,949
1749981480.2187195,1033
1749981480.2187788,1402
1749981480.2372503,1883
1749981480.2429173,2208
1749981480.2436662,2275
1749981480.2523,2096
1749981480.2808304,1780
1749981480.2817616,1437
1749981480.2830834,1152
1749981480.2988021,962
1749981480.2988772,996
1749981480.299241,1321
1749981480.3039258,1804
1749981480.3040068,2169
1749981480.3040788,2283
1749981480.3041508,2139
1749981480.304529,1837
1749981480.304606,1490
1749981480.3046792,1197
1749981480.3047514,989
1749981480.3048122,978
1749981480.3048778,1254
1749981480.3050978,1722
1749981480.3052018,2116
1749981480.305305,2274
1749981480.3054075,2174
1749981480.3055103,1895
1749981480.305613,1547
1749981480.3057315,1238
1749981480.3058343,1010
1749981480.3059368,959
1749981480.306039,1193
1749981480.3061414,1648
1749981480.3062444,2073
1749981480.3063467,2275
1749981480.3064497,2216
1749981480.3065524,1958
1749981480.306655,1611
1749981480.3067584,1289
1749981480.3068614,1041
1749981480.3069704,946
1749981480.3070734,1126
1749981480.3071759,1557
1749981480.3072786,2008
1749981480.3073812,2258
1749981480.3074846,2248
1749981480.3075874,2019
1749981480.3076952,1681
1749981480.3077977,1347
1749981480.3079007,1083
1749981480.3095636,950
1749981480.3097255,1081
1749981480.309831,1481
1749981480.3099356,1945
1749981480.310041,2227
1749981480.3101442,2251
1749981480.3102477,2042
1749981480.3103516,1712
1749981480.3104548,1373
1749981480.310559,1100
1749981480.3106632,938
1749981480.314233,1023
1749981480.3258564,1388
1749981480.325938,1864
1749981480.326011,2189
1749981480.3260832,2260
1749981480.3261545,2086
1749981480.3262343,1770
1749981480.3263063,1424
1749981480.3263774,1136
1749981480.3264492,947
1749981480.326521,984
1749981480.3266127,1309
1749981480.3266845,1789
1749981480.3267553,2153
1749981480.326827,2272
1749981480.326923,2137
1749981480.3270013,1839
1749981480.327072,1486
1749981480.3271432,1182
1749981480.3272142,966
1749981480.3272853,958
1749981480.3273563,1242
1749981480.3274271,1719
1749981480.3274982,2118
1749981480.3275692,2280
1749981480.3276393,2184
1749981480.3277118,1907
1749981480.3277833,1558
1749981480.3278556,1245
1749981480.3279278,1013
1749981480.3280003,963
1749981480.3280725,1203
1749981480.3281446,1666
1749981480.328228,2096
1749981480.3283036,2299
1749981480.3283758,2239
1749981480.3284476,1978
1749981480.3285196,1627
1749981480.3285916,1297
1749981480.3286648,1044
1749981480.3287373,951
1749981480.3288093,1141
1749981480.3288815,1581
1749981480.3289533,2036
1749981480.3290257,2282
1749981480.329098,2267
1749981480.3291702,2036
1749981480.3292425,1698
1749981480.3293147,1360
1749981480.3293867,1088
1749981480.3294592,950
1749981480.3295317,1085
1749981480.3296046,1497
1749981480.3296773,1975
1749981480.3297496,2265
1749981480.3298216,2288
1749981480.3681602,2075
1749981480.4075751,1739
1749981480.4359279,1394
1749981480.4361084,1118
1749981480.437539,955
1749981480.437951,1042
1749981480.4417026,1411
1749981480.4418123,1894
1749981480.441917,2223
1749981480.442021,2297
1749981480.4421234,2123
1749981480.4422266,1806
1749981480.4423296,1456
1749981480.4424322,1163
1749981480.4425347,968
1749981480.4451187,1001
1749981480.445308,1328
1749981480.4658577,1812
1749981480.4659357,2178
1749981480.466008,2292
1749981480.46608,2149
1749981480.466152,1847
1749981480.466224,1497
1749981480.4662955,1198
1749981480.4663677,984
1749981480.4664395,972
1749981480.4665105,1256
1749981480.4665823,1736
1749981480.4666536,2141
1749981480.466715,2303
1749981480.4667807,2198
1749981480.4668522,1912
1749981480.4669259,1559
1749981480.466997,1247
1749981480.4670682,1013
1749981480.4671392,958
1749981480.4672105,1191
1749981480.4672818,1654
1749981480.4727628,2086
1749981480.4762359,2292
1749981480.4763145,2232
1749981480.495147,1969
1749981480.5008817,1620
1749981480.5020359,1295
1749981480.5021467,1045
1749981480.5028324,950
1749981480.5029378,1134
1749981480.503041,1569
1749981480.5031445,2022
1749981480.5032494,2270
1749981480.5042713,2258
1749981480.5043795,2027
1749981480.5044842,1689
1749981480.5045872,1355
1749981480.5046906,1090
1749981480.5048804,958
1749981480.5050027,1093
1749981480.5051067,1496
1749981480.5052106,1964
1749981480.5053139,2252
1749981480.505417,2282
1749981480.5062776,2078
1749981480.5063822,1746
1749981480.5064857,1397
1749981480.5065885,1116
1749981480.5067394,954
1749981480.5068438,1044
1749981480.507883,1413
1749981480.522194,1888
1749981480.522715,2208
1749981480.522837,2276
1749981480.5229409,2101
1749981480.5308428,1785
1749981480.558322,1436
1749981480.5882883,1146
1749981480.5883825,957
1749981480.5886624,1001
1749981480.5889127,1333
1749981480.6031234,1816
1749981480.6040897,2179
1749981480.604602,2294
1749981480.6099615,2155
1749981480.647237,1853
1749981480.6473615,1498
1749981480.6646354,1192
1749981480.6651082,976
1749981480.6651824,969
1749981480.6754136,1254
1749981480.6821992,1730
1749981480.682291,2126
1749981480.6823752,2283
1749981480.6825187,2185
1749981480.6826017,1909
1749981480.6826808,1562
1749981480.6827457,1249
1749981480.6828172,1013
1749981480.682899,958
1749981480.6829815,1195
1749981480.6830509,1658
1749981480.6831403,2086
1749981480.683238,2285
1749981480.683328,2220
1749981480.683418,1958
1749981480.6835077,1611
1749981480.6835968,1290
1749981480.683685,1042
1749981480.683773,946
1749981480.6838608,1130
1749981480.6839778,1565
1749981480.6840665,2019
1749981480.6841552,2266
1749981480.6842437,2248
1749981480.6843326,2008
1749981480.6844208,1662
1749981480.6845098,1327
1749981480.684598,1070
1749981480.6846867,948
1749981480.6847682,1090
1749981480.6848466,1495
1749981480.7330365,1962
1749981480.7554145,2247
1749981480.7555013,2275
1749981480.7555811,2069
1749981480.7556612,1739
1749981480.7557404,1396
1749981480.7558205,1121
1749981480.7559106,960
1749981480.7559865,1049
1749981480.7560644,1417
1749981480.756143,1895
1749981480.7562213,2220
1749981480.756298,2292
1749981480.7563753,2120
1749981480.7564526,1805
1749981480.756529,1457
1749981480.7566066,1166
1749981480.7566843,976
1749981480.7567616,1016
1749981480.7568383,1347
1749981480.7569149,1830
1749981480.756992,2193
1749981480.7570693,2308
1749981480.7571464,2171
1749981480.7747736,1876
1749981480.7754004,1530
1749981480.7754767,1231
1749981480.7993312,1015
1749981480.7994428,1003
1749981480.8055012,1284
1749981480.8055873,1756
1749981480.8056657,2150
1749981480.8057435,2306
1749981480.8058205,2205
1749981480.8058977,1926
1749981480.805974,1578
1749981480.8060513,1264
1749981480.8061361,1030
1749981480.8062148,978
1749981480.8062923,1215
1749981480.8063695,1673
1749981480.8064468,2095
1749981480.806523,2291
1749981480.8066003,2229
1749981480.8066778,1969
1749981480.8067403,1622
1749981480.8068178,1296
1749981480.8171556,1046
1749981480.8172398,953
1749981480.817598,1140
1749981480.8221316,1574
1749981480.8222144,2021
1749981480.822293,2265
1749981480.8223715,2250
1749981480.8224492,2017
1749981480.8225274,1678
1749981480.8284652,1345
1749981480.8285496,1082
1749981480.8286278,951
1749981480.8287106,1087
1749981480.8288898,1491
1749981480.828968,1960
1749981480.829045,2248
1749981480.8291225,2274
1749981480.8291993,2062
1749981480.8292766,1726
1749981480.8293536,1382
1749981480.82943,1109
1749981480.8295069,950
1749981480.8295834,1037
1749981480.8296597,1402
1749981480.8297365,1882
1749981480.8298125,2214
1749981480.829889,2291
1749981480.829965,2116
1749981480.8300421,1795
1749981480.8301184,1445
1749981480.8301952,1158
1749981480.8302712,969
1749981480.8303478,1005
1749981480.8304245,1327
1749981480.8305008,1806
1749981480.830577,2172
1749981480.8306668,2292
1749981480.8484967,2152
1749981480.8486114,1847
1749981480.848836,1491
1749981480.849114,1191
1749981480.8492227,983
1749981480.8500273,981
1749981480.8501606,1267
1749981480.8502843,1741
1749981480.850405,2137
1749981480.850513,2295
1749981480.8506196,2194
1749981480.8512173,1913
1749981480.852926,1561
1749981480.85306,1244
1749981480.8551786,1007
1749981480.856883,954
1749981480.8640323,1196
1749981480.8877919,1663
1749981480.8879051,2094
1749981480.8880148,2293
1749981480.8881197,2228
1749981480.8882344,1967
1749981480.954898,1621
1749981480.9550195,1298
1749981480.9550962,1046
1749981480.9551718,949
1749981480.955247,1134
1749981480.9553213,1571
1749981480.955396,2023
1749981480.9554706,2266
1749981480.955545,2249
1749981480.9556193,2014
1749981480.9556932,1674
1749981480.9557679,1338
1749981480.955842,1072
1749981480.9559174,941
1749981480.955992,1081
1749981480.9560664,1490
1749981480.9561412,1959
1749981480.9562154,2244
1749981480.9562898,2271
1749981480.9563644,2064
1749981480.95644,1736
1749981480.956513,1396
1749981480.956587,1122
1749981480.9566607,962
1749981480.9567363,1050
1749981480.9567957,1415
1749981480.956864,1889
1749981480.956938,2210
1749981480.9570117,2280
1749981480.9570856,2105
1749981480.9602203,1786
1749981480.960331,1436
1749981480.9604514,1147
1749981480.960556,960
1749981480.960661,1001
1749981480.9608705,1329
1749981480.9609766,1807
1749981480.9610815,2167
1749981480.9611852,2281
1749981480.9612896,2140
1749981480.961394,1839
1749981480.9614978,1488
1749981480.961631,1190
1749981480.9617324,980
1749981480.9618073,974
1749981480.9618824,1256
1749981480.9619572,1728
1749981480.962033,2123
1749981480.9621081,2281
1749981480.9621842,2178
1749981480.9622593,1895
1749981480.9623384,1545
1749981480.9624143,1235
1749981480.962491,1006
1749981480.9625723,956
1749981480.9626498,1192
1749981480.9628747,1653
1749981480.9629524,2082
1749981480.9630299,2287
1749981481.005868,2227
1749981481.0938675,1965
1749981481.1026697,1615
1749981481.1027484,1290
1749981481.102839,1041
1749981481.1029913,951
1749981481.1030705,1141
1749981481.103141,1579
1749981481.103219,2029
1749981481.1032965,2270
1749981481.1033702,2250
1749981481.10352,2013
1749981481.1035986,1672
1749981481.1036751,1337
1749981481.1037526,1072
1749981481.1038299,941
1749981481.1134195,1077
1749981481.1135402,1480
1749981481.113648,1944
1749981481.1137633,2226
1749981481.1138704,2255
1749981481.1139758,2054
1749981481.1152978,1730
1749981481.115688,1392
1749981481.115802,1118
1749981481.115908,957
1749981481.1164017,1045
1749981481.1165335,1412
1749981481.1168346,1886
1749981481.116944,2205
1749981481.117049,2271
1749981481.1171541,2094
1749981481.1172593,1775
1749981481.117364,1424
1749981481.1174679,1135
1749981481.1175725,952
1749981481.1176834,1001
1749981481.1177883,1337
1749981481.1178932,1820
1749981481.117998,2180
1749981481.118102,2292
1749981481.1195707,2152
1749981481.1196573,1853
1749981481.1197228,1503
1749981481.119789,1204
1749981481.1198537,996
1749981481.1199245,994
1749981481.1199908,1281
1749981481.120056,1754
1749981481.1201208,2147
1749981481.1201868,2302
1749981481.120252,2201
1749981481.1203167,1923
1749981481.1203814,1575
1749981481.120447,1264
1749981481.1205118,1032
1749981481.1205761,978
1749981481.1206408,1211
1749981481.120701,1666
1749981481.1207635,2091
1749981481.1208293,2292
1749981481.1213067,2231
1749981481.1213953,1968
1749981481.1241548,1619
1749981481.1243246,1297
1749981481.125465,1052
1749981481.1276116,964
1749981481.1277552,1152
1749981481.1318228,1587
1749981481.1323044,2036
1749981481.1324496,2277
1749981481.135097,2259
1749981481.135387,2024
1749981481.1355965,1687
1749981481.135753,1359
1749981481.1366258,1104
1749981481.1367304,980
1749981481.1371837,1118
1749981481.1372952,1519
1749981481.1380386,1981
1749981481.1381507,2262
1749981481.1382732,2286
1749981481.1383777,2079
1749981481.1385436,1750
1749981481.1391275,1410
1749981481.1399045,1138
1749981481.1439977,981
1749981481.1441123,1073
1749981481.1442184,1443
1749981481.144324,1918
1749981481.1444292,2239
1749981481.144534,2307
1749981481.14464,2134
1749981481.1447465,1822
1749981481.146577,1477
1749981481.146787,1188
1749981481.1470962,995
1749981481.1473658,1035
1749981481.1476388,1369
1749981481.1479454,1857
1749981481.1482465,2217
1749981481.1969535,2321
1749981481.2323198,2171
1749981481.232398,1871
1749981481.2324717,1529
1749981481.2325714,1235
1749981481.2326446,1020
1749981481.2327173,1003
1749981481.2327926,1278
1749981481.2328637,1751
1749981481.2329345,2147
1749981481.2330048,2304
1749981481.2330751,2203
1749981481.2331464,1925
1749981481.233218,1580
1749981481.2332904,1272
1749981481.2333877,1037
1749981481.234007,978
1749981481.2341797,1206
1749981481.234323,1660
1749981481.2345076,2085
1749981481.2346468,2285
1749981481.2361426,2224
1749981481.2362173,1963
1749981481.2362854,1618
1749981481.2495022,1302
1749981481.2496238,1065
1749981481.2496972,980
1749981481.2497694,1165
1749981481.249841,1592
1749981481.2499125,2033
1749981481.249984,2274
1749981481.2500558,2261
1749981481.2501268,2033
1749981481.2501974,1697
1749981481.2502685,1365
1749981481.2503397,1104
1749981481.2504108,974
1749981481.2504816,1107
1749981481.2505527,1504
1749981481.2506237,1965
1749981481.2506893,2248
1749981481.250751,2276
1749981481.2508202,2072
1749981481.250891,1744
1749981481.2509618,1405
1749981481.251033,1136
1749981481.251104,981
1749981481.2511747,1073
1749981481.2512445,1439
1749981481.251315,1911
1749981481.2513878,2228
1749981481.2514591,2293
1749981481.2515302,2116
1749981481.2516158,1802
1749981481.2516868,1459
1749981481.2517586,1176
1749981481.2518294,987
1749981481.2519007,1023
1749981481.2519717,1344
1749981481.2520304,1820
1749981481.2521014,2181
1749981481.278458,2297
1749981481.2785757,2160
1749981481.292199,1864
1749981481.3317955,1517
1749981481.3444397,1220
1749981481.3445585,1009
1749981481.3446648,999
1749981481.3447683,1278
1749981481.3448713,1748
1749981481.3450382,2142
1749981481.3451426,2300
1749981481.3452225,2198
1749981481.3501205,1919
1749981481.360366,1571
1749981481.360489,1264
1749981481.3605971,1035
1749981481.3607037,985
1749981481.3609436,1220
1749981481.3611226,1678
1749981481.3612285,2104
1749981481.3613343,2304
1749981481.361438,2241
1749981481.3615892,1979
1749981481.3616972,1633
1749981481.3618002,1313
1749981481.3619037,1068
1749981481.3620064,974
1749981481.3621092,1155
1749981481.362212,1582
1749981481.362315,2027
1749981481.362418,2270
1749981481.363517,2258
1749981481.3671374,2030
1749981481.4305053,1695
1749981481.4306064,1362
1749981481.4306862,1096
1749981481.430766,961
1749981481.4308455,1094
1749981481.4309242,1497
1749981481.4310029,1963
1749981481.431081,2246
1749981481.4311607,2271
1749981481.4312398,2065
1749981481.4313188,1740
1749981481.4313982,1404
1749981481.431477,1132
1749981481.4315615,971
1749981481.4316416,1057
1749981481.4317214,1422
1749981481.431801,1897
1749981481.43188,2219
1749981481.4319592,2289
1749981481.4320383,2114
1749981481.432118,1800
1749981481.4321976,1455
1749981481.432291,1168
1749981481.4324229,977
1749981481.4325025,1011
1749981481.432581,1332
1749981481.4326594,1809
1749981481.4327378,2172
1749981481.4369447,2290
1749981481.4370196,2153
1749981481.437091,1852
1749981481.437162,1499
1749981481.4372332,1196
1749981481.4373045,985
1749981481.4373755,980
1749981481.4374464,1264
1749981481.4375176,1736
1749981481.4375887,2129
1749981481.43766,2287
1749981481.4377306,2189
1749981481.4378018,1912
1749981481.4378726,1565
1749981481.437943,1254
1749981481.4380145,1023
1749981481.438085,969
1749981481.4381616,1200
1749981481.4382446,1652
1749981481.438316,2075
1749981481.438387,2279
1749981481.438457,2226
1749981481.438528,1973
1749981481.438599,1627
1749981481.4386704,1300
1749981481.4387407,1050
1749981481.438811,958
1749981481.438876,1147
1749981481.4389455,1584
1749981481.439016,2036
1749981481.4390862,2281
1749981481.439157,2264
1749981481.4412467,2028
1749981481.4413216,1685
1749981481.4413943,1348
1749981481.4414666,1085
1749981481.4415374,956
1749981481.4416213,1091
1749981481.4416926,1492
1749981481.4417648,1959
1749981481.4418364,2247
1749981481.441908,2279
1749981481.4419794,2076
1749981481.4420512,1748
1749981481.4421284,1407
1749981481.4421947,1133
1749981481.442261,972
1749981481.4423306,1056
1749981481.4424005,1417
1749981481.4424715,1889
1749981481.4425426,2211
1749981481.4426138,2285
1749981481.442685,2115
1749981481.442748,1801
1749981481.4428074,1454
1749981481.4428785,1166
1749981481.4429495,975
1749981481.4430208,1011
1749981481.4430912,1336
1749981481.4431622,1816
1749981481.4432333,2182
1749981481.4433048,2300
1749981481.443376,2162
1749981481.443447,1862
1749981481.443518,1514
1749981481.4435885,1221
1749981481.4436598,1015
1749981481.4437299,1006
1749981481.443801,1282
1749981481.4438717,1750
1749981481.4439425,2150
1749981481.444014,2317
1749981481.466777,2225
1749981481.4669666,1947
1749981481.4911814,1595
1749981481.5354295,1282
1749981481.5365338,1054
1749981481.536624,1008
1749981481.5366874,1245
1749981481.536888,1698
1749981481.536956,2115
1749981481.5370214,2311
1749981481.5370872,2253
1749981481.5371518,2002
1749981481.5372171,1663
1749981481.5372822,1341
1749981481.5373476,1088
1749981481.5374126,988
1749981481.5374777,1167
1749981481.5375428,1597
1749981481.5376077,2044
1749981481.537673,2287
1749981481.537738,2272
1749981481.5378041,2039
1749981481.537871,1699
1749981481.537944,1367
1749981481.5380106,1108
1749981481.5380757,984
1749981481.5381408,1127
1749981481.5382054,1533
1749981481.5382905,1999
1749981481.538356,2282
1749981481.5384204,2308
1749981481.538494,2102
1749981481.5385585,1775
1749981481.5386202,1433
1749981481.5387897,1155
1749981481.5388558,989
1749981481.5389204,1072
1749981481.5389857,1440
1749981481.5390503,1921
1749981481.5391147,2249
1749981481.5391798,2323
1749981481.5392447,2151
1749981481.5393093,1837
1749981481.539374,1491
1749981481.539439,1204
1749981481.5395038,1016
1749981481.5395687,1054
1749981481.5396338,1378
1749981481.5396984,1854
1749981481.5397632,2211
1749981481.5398283,2326
1749981481.5398927,2191
1749981481.5399578,1899
1749981481.5400221,1554
1749981481.540087,1253
1749981481.5401518,1035
1749981481.540216,1021
1749981481.5402808,1298
1749981481.5403452,1771
1749981481.5404112,2169
1749981481.5404756,2329
1749981481.5405402,2229
1749981481.5406015,1948
1749981481.5406616,1598
1749981481.5407202,1288
1749981481.541176,1059
1749981481.541242,1006
1749981481.5413067,1237
1749981481.541371,1691
1749981481.541436,2115
1749981481.541501,2318
1749981481.541574,2259
1749981481.541639,1999
1749981481.541704,1652
1749981481.541768,1330
1749981481.541833,1083
1749981481.5418978,986
1749981481.5419629,1165
1749981481.5420275,1592
1749981481.542092,2040
1749981481.5421567,2284
1749981481.5422215,2267
1749981481.5422866,2032
1749981481.542351,1692
1749981481.5424163,1359
1749981481.5424807,1097
1749981481.5425444,965
1749981481.542608,1100
1749981481.5426672,1506
1749981481.6026843,1979
1749981481.618333,2268
1749981481.620837,2296
1749981481.6213946,2087
1749981481.6214807,1757
1749981481.6215863,1416
1749981481.6221023,1142
1749981481.6285849,979
1749981481.628674,1063
1749981481.6287546,1430
1749981481.6288166,1912
1749981481.6289043,2242
1749981481.6289864,2317
1749981481.6290693,2144
1749981481.6291518,1828
1749981481.629234,1481
1749981481.6293168,1194
1749981481.6293988,1005
1749981481.62948,1042
1749981481.6295605,1365
1749981481.6296418,1841
1749981481.6297226,2203
1749981481.6298027,2319
1749981481.629884,2183
1749981481.629965,1883
1749981481.6300442,1529
1749981481.6301248,1226
1749981481.6302047,1014
1749981481.6302845,1008
1749981481.630365,1290
1749981481.6304452,1761
1749981481.630525,2155
1749981481.6429272,2316
1749981481.643023,2222
1749981481.6431131,1944
1749981481.6432056,1590
1749981481.6432955,1272
1749981481.643384,1039
1749981481.643473,988
1749981481.6435628,1223
1749981481.6437452,1676
1749981481.643835,2096
1749981481.6439245,2296
1749981481.6440136,2239
1749981481.6441016,1981
1749981481.644191,1632
1749981481.64428,1304
1749981481.644369,1055
1749981481.6444583,966
1749981481.644547,1155
1749981481.6446419,1588
1749981481.64473,2033
1749981481.644802,2275
1749981481.644903,2261
1749981481.644992,2032
1749981481.6450808,1694
1749981481.64517,1359
1749981481.645259,1094
1749981481.6453485,963
1749981481.645438,1101
1749981481.6455276,1508
1749981481.6456165,1978
1749981481.645708,2263
1749981481.645802,2290
1749981481.6473963,2084
1749981481.6482675,1757
1749981481.6596804,1419
1749981481.6598704,1145
1749981481.659995,983
1749981481.6600761,1065
1749981481.6601536,1427
1749981481.660251,1903
1749981481.6717079,2228
1749981481.7136765,2302
1749981481.7144263,2130
1749981481.7145336,1816
1749981481.714868,1469
1749981481.7150114,1180
1749981481.7151165,990
1749981481.7152197,1028
1749981481.715323,1355
1749981481.715432,1835
1749981481.7155354,2197
1749981481.7156389,2312
1749981481.7157433,2175
1749981481.7158463,1878
1749981481.7159498,1531
1749981481.7160554,1234
1749981481.7161582,1024
1749981481.716262,1018
1749981481.7163649,1302
1749981481.7164679,1775
1749981481.7165709,2169
1749981481.7166743,2324
1749981481.716867,2223
1749981481.7169716,1943
1749981481.7170773,1594
1749981481.7171836,1281
1749981481.7172859,1047
1749981481.7173934,993
1749981481.722133,1224
1749981481.7228758,1678
1749981481.7229493,2103
1749981481.7230215,2307
1749981481.7230935,2254
1749981481.7231655,2000
1749981481.723237,1653
1749981481.7233093,1325
1749981481.7233813,1073
1749981481.7234535,979
1749981481.7235246,1166
1749981481.7235947,1598
1749981481.7236657,2043
1749981481.7242663,2283
1749981481.761864,2269
1749981481.7664027,2042
1749981481.7664807,1706
1749981481.7666516,1372
1749981481.7667167,1105
1749981481.7667875,974
1749981481.7672276,1112
1749981481.7674625,1519
1749981481.767758,1986
1749981481.7678747,2268
1749981481.7679422,2292
1749981481.7680082,2086
1749981481.768074,1760
1749981481.7681408,1421
1749981481.7682068,1145
1749981481.7682939,979
1749981481.7695873,1061
1749981481.7696579,1425
1749981481.7697244,1903
1749981481.7697902,2231
1749981481.7698567,2306
1749981481.7699237,2135
1749981481.7699904,1820
1749981481.7700567,1470
1749981481.770123,1180
1749981481.7701888,990
1749981481.770255,1030
1749981481.7703204,1356
1749981481.7703865,1834
1749981481.770453,2195
1749981481.7705185,2310
1749981481.770584,2172
1749981481.7706435,1872
1749981481.7707074,1519
1749981481.7711115,1215
1749981481.7830508,1001
1749981481.7913613,994
1749981481.7916656,1274
1749981481.7917435,1743
1749981481.7918205,2136
1749981481.7918885,2295
1749981481.7919576,2201
1749981481.7920265,1926
1749981481.7921069,1575
1749981481.7921765,1254
1749981481.7922459,1014
1749981481.7923145,958
1749981481.7989194,1195
1749981481.7993007,1658
1749981481.7994568,2087
1749981481.7995627,2288
1749981481.8002212,2228
1749981481.8002992,1970
1749981481.8003733,1624
1749981481.8004467,1302
1749981481.8005204,1054
1749981481.8005939,959
1749981481.8006666,1145
1749981481.8007393,1578
1749981481.8008003,2027
1749981481.80087,2270
1749981481.8009427,2256
1749981481.801015,2025
1749981481.8010871,1688
1749981481.8011591,1353
1749981481.8012314,1086
1749981481.8013034,953
1749981481.8013756,1088
1749981481.8014479,1494
1749981481.8015206,1964
1749981481.8016098,2252
1749981481.801682,2282
1749981481.8017535,2078
1749981481.8018255,1747
1749981481.8019073,1402
1749981481.801979,1127
1749981481.802051,971
1749981481.802124,1065
1749981481.802196,1435
1749981481.8022678,1910
1749981481.8023398,2233
1749981481.8024118,2306
1749981481.802484,2135
1749981481.802809,1820
1749981481.8028848,1467
1749981481.8029575,1173
1749981481.803517,981
1749981481.8035939,1022
1749981481.8036666,1352
1749981481.8037395,1834
1749981481.8038123,2196
1749981481.8039114,2309
1749981481.8039973,2170
1749981481.8040688,1871
1749981481.8041408,1519
1749981481.8042142,1216
1749981481.8042896,998
1749981481.8068595,986
1749981481.8069584,1266
1749981481.8070312,1740
1749981481.8071032,2138
1749981481.8071754,2297
1749981481.8072467,2194
1749981481.807318,1913
1749981481.807404,1563
1749981481.807542,1251
1749981481.8076138,1018
1749981481.8076847,963
1749981481.8077555,1196
1749981481.8078446,1656
1749981481.8079157,2088
1749981481.807987,2296
1749981481.8080578,2240
1749981481.8081286,1982
1749981481.8081992,1634
1749981481.8135002,1308
1749981481.813589,1058
1749981481.8136563,964
1749981481.8137233,1150
1749981481.8137896,1586
1749981481.8138576,2036
1749981481.8139281,2278
1749981481.8139992,2260
1749981481.81407,2027
1749981481.8141406,1691
1749981481.8142111,1360
1749981481.8142817,1097
1749981481.8143523,966
1749981481.8144226,1102
1749981481.8144932,1509
1749981481.814564,1981
1749981481.8146348,2270
1749981481.8147054,2297
1749981481.8147762,2086
1749981481.8148468,1752
1749981481.814931,1405
1749981481.8150015,1127
1749981481.8150725,964
1749981481.8151429,1052
1749981481.815213,1420
1749981481.8152838,1899
1749981481.815354,2226
1749981481.815425,2299
1749981481.8154957,2124
1749981481.8155663,1805
1749981481.8156378,1453
1749981481.815718,1162
1749981481.8157885,973
1749981481.8158588,1016
1749981481.8159301,1347
1749981481.8160007,1831
1749981481.8160715,2195
1749981481.8161426,2309
1749981481.8162131,2168
1749981481.8162837,1863
1749981481.8163548,1505
1749981481.8164256,1197
1749981481.8164961,983
1749981481.8165665,981
1749981481.8166375,1275
1749981481.8167078,1759
1749981481.8255439,2161
1749981481.8256152,2321
1749981481.8256814,2220
1749981481.8257859,1937
1749981481.8258548,1581
1749981481.8259223,1261
1749981481.825988,1023
1749981481.8260543,970
1749981481.82612,1208
1749981481.8261867,1670
1749981481.826253,2100
1749981481.8263195,2307
1749981481.8263853,2254
1749981481.8264515,1999
1749981481.826532,1650
1749981481.8265958,1319
1749981481.9020295,1064
1749981481.945,971
1749981481.9450727,1162
1749981481.9451404,1601
1749981481.945207,2050
1749981481.9452739,2289
1749981481.9453402,2268
1749981481.945407,2033
1749981482.01092,1694
1749981482.0402265,1360
1749981482.0418553,1094
1749981482.0461316,961
1749981482.0477676,1099
1749981482.0478616,1506
1749981482.0479527,1975
1749981482.0480452,2258
1749981482.0481653,2279
1749981482.048269,2069
1749981482.0483594,1739
1749981482.048449,1398
1749981482.0485384,1121
1749981482.0489068,957
1749981482.0490248,1045
1749981482.0491166,1415
1749981482.0492067,1896
1749981482.0492957,2222
1749981482.049385,2291
1749981482.0494916,2114
1749981482.049581,1798
1749981482.0496738,1452
1749981482.049762,1165
1749981482.0498512,974
1749981482.049956,1010
1749981482.0500455,1333
1749981482.050135,1812
1749981482.0502234,2173
1749981482.0503273,2287
1749981482.0504181,2146
1749981482.0505068,1845
1749981482.0505953,1495
1749981482.0506842,1195
1749981482.0507894,980
1749981482.050879,971
1749981482.0509686,1253
1749981482.0510585,1729
1749981482.0512419,2127
1749981482.051318,2284
1749981482.0513935,2179
1749981482.0514693,1894
1749981482.0515454,1542
1749981482.051647,1232
1749981482.051717,1002
1749981482.0517905,951
1749981482.0518656,1186
1749981482.0523763,1642
1749981482.052454,2065
1749981482.052529,2263
1749981482.0526028,2199
1749981482.0526774,1937
1749981482.0527527,1591
1749981482.0528278,1269
1749981482.052902,1023
1749981482.0544102,931
1749981482.0730064,1117
1749981482.0730875,1552
1749981482.0731595,2003
1749981482.0732336,2249
1749981482.0735433,2231
1749981482.0736213,1994
1749981482.0736966,1651
1749981482.0737805,1316
1749981482.0738556,1053
1749981482.0739298,924
1749981482.0740042,1062
1749981482.074083,1466
1749981482.0741568,1934
1749981482.0742307,2220
1749981482.074305,2248
1749981482.0743818,2043
1749981482.0744588,1712
1749981482.074536,1367
1749981482.0746126,1087
1749981482.0746896,925
1749981482.0747664,1016
1749981482.0748434,1388
1749981482.0749972,1867
1749981482.0750766,2189
1749981482.0751534,2258
1749981482.0752347,2085
1749981482.0753021,1770
1749981482.0753686,1421
1749981482.0754359,1128
1749981482.0755057,936
1749981482.0755832,978
1749981482.0756605,1311
1749981482.0757372,1794
1749981482.0758142,2157
1749981482.0758922,2272
1749981482.075969,2136
1749981482.0760458,1840
1749981482.076123,1492
1749981482.0761998,1192
1749981482.0762768,981
1749981482.0763533,978
1749981482.0764303,1264
1749981482.0765076,1738
1749981482.0765843,2132
1749981482.076661,2291
1749981482.0767379,2193
1749981482.0768147,1914
1749981482.0768914,1563
1749981482.0769682,1251
1749981482.077045,1022
1749981482.0771222,973
1749981482.0772018,1209
1749981482.0772676,1666
1749981482.0773346,2090
1749981482.0774083,2294
1749981482.0774846,2236
1749981482.0775628,1975
1749981482.077639,1623
1749981482.0777159,1297
1749981482.0778337,1050
1749981482.077911,959
1749981482.077987,1144
1749981482.0780632,1575
1749981482.0781355,2020
1749981482.0782049,2262
1749981482.078274,2246
1749981482.0783443,2011
1749981482.0784154,1672
1749981482.078485,1339
1749981482.0785546,1079
1749981482.0786254,951
1749981482.0786896,1089
1749981482.0787594,1494
1749981482.0788295,1964
1749981482.0788996,2249
1749981482.07897,2275
1749981482.0790398,2064
1749981482.0791101,1732
1749981482.079189,1390
1749981482.0792594,1117
1749981482.0793297,957
1749981482.0793998,1046
1749981482.0794702,1412
1749981482.07954,1888
1749981482.0796099,2211
1749981482.0796802,2281
1749981482.07975,2106
1749981482.0798206,1791
1749981482.0798905,1446
1749981482.0799608,1160
1749981482.0800312,975
1749981482.0801015,1019
1749981482.0801725,1349
1749981482.080243,1829
1749981482.080314,2190
1749981482.0803843,2306
1749981482.0804546,2168
1749981482.0805244,1865
1749981482.080595,1504
1749981482.0806649,1194
1749981482.0807345,980
1749981482.0807934,979
1749981482.0808594,1268
1749981482.0809298,1741
1749981482.0809996,2131
1749981482.0810704,2287
1749981482.0811422,2186
1749981482.0812128,1904
1749981482.081283,1546
1749981482.0813527,1225
1749981482.0814226,991
1749981482.0814927,945
1749981482.089187,1187
1749981482.0892713,1648
1749981482.0893445,2073
1749981482.0894167,2279
1749981482.0894878,2229
1749981482.0895588,1975
1749981482.08963,1625
1749981482.0897048,1291
1749981482.089777,1037
1749981482.089848,947
1749981482.0899198,1139
1749981482.0899904,1575
1749981482.090061,2020
1749981482.0901318,2259
1749981482.0902042,2241
1749981482.0902762,2007
1749981482.0903473,1664
1749981482.0904186,1325
1749981482.0904896,1060
1749981482.0905602,933
1749981482.0906308,1075
1749981482.0906932,1482
1749981482.090755,1951
1749981482.0908258,2237
1749981482.090896,2267
1749981482.0909693,2063
1749981482.0910397,1732
1749981482.09111,1386
1749981482.0911806,1107
1749981482.091251,946
1749981482.0913222,1036
1749981482.0913928,1406
1749981482.0914636,1884
1749981482.091535,2207
1749981482.0916238,2278
1749981482.091695,2102
1749981482.091767,1784
1749981482.0918365,1434
1749981482.0919075,1144
1749981482.0919783,954
1749981482.0920615,994
1749981482.0921319,1323
1749981482.0922174,1804
1749981482.0922883,2167
1749981482.0923588,2282
1749981482.0924296,2142
1749981482.0925,1840
1749981482.0925703,1488
1749981482.092641,1188
1749981482.0927112,978
1749981482.0927715,973
1749981482.0928364,1255
1749981482.092916,1724
1749981482.0929868,2115
1749981482.093057,2271
1749981482.0931277,2173
1749981482.093198,1896
1749981482.0932682,1549
1749981482.0933383,1239
1749981482.0934093,1007
1749981482.0934796,956
1749981482.0935504,1193
1749981482.093621,1652
1749981482.093691,2076
1749981482.093766,2274
1749981482.0938392,2211
1749981482.0939097,1951
1749981482.0939798,1604
1749981482.094051,1282
1749981482.0941215,1036
1749981482.0941937,949
1749981482.094265,1142
1749981482.0943391,1581
1749981482.0944104,2030
1749981482.0944815,2271
1749981482.094552,2253
1749981482.0946226,2019
1749981482.0946877,1676
1749981482.0947473,1338
1749981482.0948095,1074
1749981482.0949028,950
1749981482.09498,1100
1749981482.0950549,1514
1749981482.095126,1985
1749981482.0951962,2268
1749981482.095268,2294
1749981482.0953388,2089
1749981482.1549752,1758
1749981482.1884255,1409
1749981482.1904147,1122
1749981482.1908937,955
1749981482.1910315,1049
1749981482.1911314,1432
1749981482.1912255,1922
1749981482.1915743,2247
1749981482.191677,2308
1749981482.1917865,2123
1749981482.1923857,1804
1749981482.1924696,1460
1749981482.1925585,1172
1749981482.1926897,977
1749981482.1928945,1015
1749981482.1929772,1352
1749981482.1931624,1848
1749981482.193232,2222
1749981482.1933007,2334
1749981482.1933684,2182
1749981482.193456,1870
1749981482.1935382,1513
1749981482.19364,1208
1749981482.1937182,989
1749981482.1937957,975
1749981482.1938732,1255
1749981482.1939518,1732
1749981482.2007434,2131
1749981482.2016082,2290
1749981482.241102,2184
1749981482.3040466,1898
1749981482.327318,1545
1749981482.3290186,1230
1749981482.3355877,994
1749981482.3449426,942
1749981482.3556428,1183
1749981482.3606312,1652
1749981482.36083,2087
1749981482.3663368,2290
1749981482.415328,2223
1749981482.4155653,1953
1749981482.4156787,1598
1749981482.4157887,1269
1749981482.4158945,1018
1749981482.4159899,928
1749981482.4160712,1125
1749981482.4161463,1575
1749981482.4162185,2037
1749981482.4162898,2285
1749981482.416364,2261
1749981482.4164386,2015
1749981482.41652,1666
1749981482.4165957,1328
1749981482.4166691,1065
1749981482.4167352,940
1749981482.4168074,1085
1749981482.4168887,1498
1749981482.416973,1972
1749981482.4170465,2260
1749981482.417126,2287
1749981482.4172153,2077
1749981482.4172893,1741
1749981482.417363,1391
1749981482.417442,1107
1749981482.4175174,947
1749981482.4175923,1048
1749981482.4176657,1432
1749981482.4177427,1920
1749981482.417818,2246
1749981482.4178903,2313
1749981482.4179657,2135
1749981482.418041,1816
1749981482.418115,1462
1749981482.4181876,1164
1749981482.4182765,969
1749981482.4183471,1014
1749981482.418421,1353
1749981482.4184945,1843
1749981482.4185681,2207
1749981482.4186337,2316
1749981482.4187064,2169
1749981482.4187791,1863
1749981482.4188545,1508
1749981482.4189305,1205
1749981482.4190056,993
1749981482.4190843,993
1749981482.4191594,1287
1749981482.419234,1769
1749981482.4193199,2167
1749981482.4193954,2322
1749981482.4194806,2218
1749981482.4195545,1937
1749981482.4196296,1590
1749981482.4197054,1283
1749981482.419786,1056
1749981482.4198604,1012
1749981482.419934,1256
1749981482.420009,1720
1749981482.4200847,2144
1749981482.4201589,2341
1749981482.4202335,2276
1749981482.420308,2012
1749981482.4429123,1661
1749981482.4430025,1333
1749981482.4430785,1083
1749981482.4431539,994
1749981482.4432292,1190
1749981482.4433048,1634
1749981482.4433796,2085
1749981482.4434547,2324
1749981482.4437249,2300
1749981482.4437988,2058
1749981482.443874,1713
1749981482.443949,1379
1749981482.4440231,1119
1749981482.444098,995
1749981482.4441729,1138
1749981482.444271,1545
1749981482.4443457,2011
1749981482.4444203,2292
1749981482.4444952,2315
1749981482.4445693,2102
1749981482.4446447,1767
1749981482.4447193,1424
1749981482.4447825,1150
1749981482.444848,992
1749981482.4450107,1082
1749981482.445079,1450
1749981482.5056148,1927
1749981482.5308554,2251
1749981482.5456214,2322
1749981482.5457377,2142
1749981482.547094,1816
1749981482.5474923,1463
1749981482.5475938,1175
1749981482.547676,992
1749981482.5477579,1038
1749981482.5566902,1366
1749981482.5570254,1841
1749981482.5575144,2198
1749981482.5576568,2312
1749981482.5577881,2169
1749981482.5579362,1860
1749981482.558066,1499
1749981482.5581949,1193
1749981482.558349,984
1749981482.558481,989
1749981482.55861,1283
1749981482.5588284,1760
1749981482.5589502,2152
1749981482.5590575,2306
1749981482.5591652,2205
1749981482.5592847,1925
1749981482.5593917,1576
1749981482.559499,1267
1749981482.5596058,1040
1749981482.5597248,995
1749981482.5598328,1235
1749981482.5599406,1692
1749981482.5600476,2114
1749981482.560167,2313
1749981482.5602748,2252
1749981482.5603817,1989
1749981482.560489,1634
1749981482.5635924,1304
1749981482.5636818,1054
1749981482.5637612,969
1749981482.5638406,1165
1749981482.5667624,1603
1749981482.5888345,2049
1749981482.5889835,2288
1749981482.5890603,2268
1749981482.5891364,2031
1749981482.5892532,1687
1749981482.5896606,1351
1749981482.5905087,1090
1749981482.600307,969
1749981482.602537,1115
1749981482.602694,1523
1749981482.6027634,1985
1749981482.6028507,2263
1749981482.6029398,2284
1749981482.603029,2073
1749981482.6031175,1739
1749981482.6032069,1397
1749981482.6038313,1125
1749981482.603921,974
1749981482.604028,1073
1749981482.6041255,1445
1749981482.6042058,1919
1749981482.604339,2240
1749981482.6044168,2311
1749981482.6044948,2138
1749981482.6045718,1821
1749981482.604648,1470
1749981482.6047158,1180
1749981482.6047907,995
1749981482.6048691,1046
1749981482.6049502,1383
1749981482.6050315,1863
1749981482.6051102,2218
1749981482.6051862,2325
1749981482.6052625,2179
1749981482.6053386,1874
1749981482.6054158,1521
1749981482.6054935,1221
1749981482.605572,1010
1749981482.605649,1008
1749981482.6057255,1298
1749981482.6058035,1775
1749981482.6058805,2170
1749981482.616695,2326
1749981482.6235213,2221
1749981482.6311457,1935
1749981482.6312704,1578
1749981482.6313767,1262
1749981482.6314824,1028
1749981482.6316142,981
1749981482.6317203,1224
1749981482.6652522,1686
1749981482.692814,2111
1749981482.6929874,2308
1749981482.7047477,2244
1749981482.7048728,1981
1749981482.7050202,1633
1749981482.705128,1311
1749981482.7052464,1067
1749981482.705364,981
1749981482.7073739,1175
1749981482.717849,1612
1749981482.7234433,2058
1749981482.7240798,2299
1749981482.7250345,2282
1749981482.7406561,2049
1749981482.7530987,1708
1749981482.840811,1374
1749981482.8409452,1112
1749981482.8410468,990
1749981482.8411677,1138
1749981482.8412673,1547
1749981482.841367,2008
1749981482.8414664,2283
1749981482.841691,2301
1749981482.8417904,2090
1749981482.8418899,1756
1749981482.842016,1413
1749981482.8421144,1137
1749981482.8422124,981
1749981482.8423107,1080
1749981482.8470814,1456
1749981482.8621085,1933
1749981482.8636806,2250
1749981482.8731966,2314
1749981482.8732853,2137
1749981482.8733578,1819
1749981482.8734298,1470
1749981482.873499,1179
1749981482.8735676,991
1749981482.8736372,1038
1749981482.8737056,1372
1749981482.8737726,1852
1749981482.8738418,2206
1749981482.8739147,2311
1749981482.8739839,2164
1749981482.8740525,1860
1749981482.874122,1506
1749981482.8741891,1203
1749981482.8742564,992
1749981482.8743243,993
1749981482.8743916,1285
1749981482.8744624,1761
1749981482.874532,2151
1749981482.874595,2303
1749981482.8747797,2200
1749981482.874851,1922
1749981482.8749347,1575
1749981482.8750057,1264
1749981482.8750763,1031
1749981482.8751464,985
1749981482.8752174,1230
1749981482.8752885,1695
1749981482.8753617,2118
1749981482.8754327,2311
1749981482.8755033,2239
1749981482.875574,1969
1749981482.8756447,1614
1749981482.8757153,1287
1749981482.875786,1040
1749981482.8758566,957
1749981482.8759272,1159
1749981482.875998,1605
1749981482.8760686,2058
1749981482.876139,2300
1749981482.87621,2279
1749981482.8762808,2039
1749981482.876352,1690
1749981482.876423,1348
1749981482.876495,1083
1749981482.8765674,959
1749981482.876641,1108
1749981482.8767142,1520
1749981482.876912,1985
1749981482.8769825,2262
1749981482.877053,2284
1749981482.8771234,2074
1749981482.8771937,1740
1749981482.8772645,1393
1749981482.8773394,1113
1749981482.8774092,955
1749981482.8774798,1056
1749981482.8775492,1437
1749981482.8776197,1918
1749981482.8776903,2237
1749981482.8777604,2300
1749981482.87783,2117
1749981482.8779001,1793
1749981482.8779705,1438
1749981482.8780403,1144
1749981482.87811,956
1749981482.8781798,1006
1749981482.885698,1346
1749981482.909818,1832
1749981482.9126213,2191
1749981482.9129448,2299
1749981482.9132447,2152
1749981482.913509,1847
1749981482.946839,1496
1749981482.9469242,1199
1749981482.9470007,992
1749981482.960793,994
1749981482.961123,1284
1749981483.052099,1758
1749981483.0734098,2149
1749981483.0735767,2302
1749981483.073689,2195
1749981483.0781193,1912
1749981483.0782003,1562
1749981483.0782814,1252
1749981483.0783536,1021
1749981483.0784261,974
1749981483.0784926,1217
1749981483.0785632,1681
1749981483.0813324,2107
1749981483.081612,2302
1749981483.081718,2231
1749981483.081836,1960
1749981483.0819407,1607
1749981483.082058,1285
1749981483.0821626,1042
1749981483.0822678,960
1749981483.0824006,1157
1749981483.0825026,1598
1749981483.0826046,2045
1749981483.0827062,2284
1749981483.0828192,2259
1749981483.082922,2017
1749981483.083025,1670
1749981483.0831268,1334
1749981483.083239,1072
1749981483.0833414,950
1749981483.083466,1097
1749981483.0835683,1506
1749981483.0836823,1969
1749981483.0837927,2245
1749981483.0838947,2266
1749981483.083997,2056
1749981483.0845745,1725
1749981483.139699,1382
1749981483.1401026,1105
1749981483.140197,948
1749981483.1405797,1047
1749981483.1417706,1426
1749981483.1447985,1905
1749981483.144863,2223
1749981483.144967,2285
1749981483.1450322,2100
1749981483.1450953,1776
1749981483.1451573,1423
1749981483.145219,1134
1749981483.1452813,950
1749981483.145363,1003
1749981483.145438,1345
1749981483.1455128,1834
1749981483.1455872,2194
1749981483.1456614,2302
1749981483.1457355,2154
1749981483.1458092,1850
1749981483.1458972,1499
1749981483.145973,1198
1749981483.146048,985
1749981483.1461232,983
1749981483.1461985,1279
1749981483.1462724,1766
1749981483.1463602,2164
1749981483.146435,2310
1749981483.1465092,2192
1749981483.1465836,1902
1749981483.1466575,1555
1749981483.1467323,1250
1749981483.1468205,1019
1749981483.1468952,965
1749981483.146969,1203
1749981483.147043,1667
1749981483.1471174,2096
1749981483.1472347,2293
1749981483.147312,2222
1749981483.1473837,1951
1749981483.1474552,1599
1749981483.1475265,1277
1749981483.1475976,1032
1749981483.1476676,947
1749981483.1477392,1146
1749981483.1478107,1590
1749981483.147882,2040
1749981483.1479535,2277
1749981483.1480255,2248
1749981483.1480951,2004
1749981483.1481664,1659
1749981483.1482506,1325
1749981483.1483223,1063
1749981483.1484194,940
1749981483.1484914,1088
1749981483.1485617,1501
1749981483.1486418,1967
1749981483.1487129,2243
1749981483.1487844,2261
1749981483.148856,2050
1749981483.1489272,1721
1749981483.148997,1382
1749981483.1490686,1109
1749981483.14914,953
1749981483.1492126,1053
1749981483.149285,1431
1749981483.1493568,1906
1749981483.1494224,2220
1749981483.1494935,2280
1749981483.1495647,2101
1749981483.1496363,1786
1749981483.1497078,1441
1749981483.149779,1153
1749981483.1498501,968
1749981483.149922,1019
1749981483.1499937,1359
1749981483.1500654,1841
1749981483.1501374,2194
1749981483.15021,2296
1749981483.1502812,2146
1749981483.1503527,1842
1749981483.1692574,1491
1749981483.169386,1192
1749981483.169493,983
1749981483.1695986,989
1749981483.1697028,1288
1749981483.169808,1771
1749981483.1699126,2163
1749981483.170018,2312
1749981483.1701221,2202
1749981483.1702263,1920
1749981483.1703508,1573
1749981483.1704557,1266
1749981483.1705587,1035
1749981483.1707866,987
1749981483.1708996,1228
1749981483.1710036,1689
1749981483.1711066,2110
1749981483.1950727,2303
1749981483.2278924,2234
1749981483.2493396,1968
1749981483.2496965,1618
1749981483.2764275,1297
1749981483.3067167,1053
1749981483.3068912,970
1749981483.306984,1169
1749981483.3070748,1611
1749981483.3072133,2056
1749981483.3073118,2289
1749981483.3074076,2261
1749981483.3074994,2021
1749981483.3080978,1682
1749981483.308195,1354
1749981483.3082862,1094
1749981483.3083644,969
1749981483.3084495,1115
1749981483.3085349,1530
1749981483.3086193,1999
1749981483.3087032,2277
1749981483.3087711,2290
1749981483.308853,2072
1749981483.3089347,1738
1749981483.3090172,1401
1749981483.3090994,1129
1749981483.3091815,972
1749981483.309263,1067
1749981483.3093443,1444
1749981483.309426,1924
1749981483.3095076,2243
1749981483.30959,2303
1749981483.3096743,2117
1749981483.3097565,1794
1749981483.3098445,1447
1749981483.309919,1163
1749981483.3099983,977
1749981483.3100827,1022
1749981483.310167,1353
1749981483.3102493,1830
1749981483.3103309,2183
1749981483.3104136,2289
1749981483.3104944,2143
1749981483.3105738,1841
1749981483.3106527,1490
1749981483.310714,1191
1749981483.3107936,983
1749981483.3108747,989
1749981483.3109584,1287
1749981483.3110416,1764
1749981483.3111234,2150
1749981483.3112051,2295
1749981483.3112867,2185
1749981483.3113682,1904
1749981483.3114471,1557
1749981483.3115282,1249
1749981483.3116179,1021
1749981483.311699,981
1749981483.3117821,1231
1749981483.3118691,1697
1749981483.311947,2120
1749981483.3120282,2314
1749981483.3121092,2247
1749981483.3121896,1984
1749981483.3122704,1634
1749981483.3123527,1308
1749981483.312433,1059
1749981483.3125136,976
1749981483.3125954,1178
1749981483.312676,1623
1749981483.312747,2068
1749981483.3128092,2298
1749981483.3128827,2266
1749981483.3129597,2025
1749981483.3130379,1686
1749981483.3131187,1357
1749981483.3131971,1095
1749981483.3132744,966
1749981483.313352,1107
1749981483.3134308,1515
1749981483.3135102,1982
1749981483.3135917,2261
1749981483.3136706,2279
1749981483.3137493,2065
1749981483.313838,1734
1749981483.3139162,1398
1749981483.313994,1128
1749981483.3140717,973
1749981483.3141494,1070
1749981483.3142269,1446
1749981483.3146977,1925
1749981483.314818,2243
1749981483.31916,2302
1749981483.3192503,2114
1749981483.3193321,1792
1749981483.3194137,1449
1749981483.3194945,1171
1749981483.3195755,991
1749981483.3196561,1037
1749981483.3197443,1368
1749981483.3198233,1848
1749981483.3199022,2206
1749981483.3199804,2313
1749981483.320061,2163
1749981483.3201404,1853
1749981483.32022,1501
1749981483.3202984,1206
1749981483.3203778,1003
1749981483.320457,1008
1749981483.3205352,1301
1749981483.3206136,1777
1749981483.3206925,2168
1749981483.320758,2317
1749981483.320828,2205
1749981483.320906,1914
1749981483.3209841,1559
1749981483.321062,1248
1749981483.3211398,1021
1749981483.3212178,980
1749981483.3212967,1227
1749981483.3213744,1691
1749981483.3214526,2113
1749981483.3215313,2308
1749981483.3216422,2241
1749981483.3217216,1979
1749981483.3218,1631
1749981483.3218782,1307
1749981483.3219557,1056
1749981483.3220336,965
1749981483.322112,1159
1749981483.32219,1600
1749981483.3222675,2050
1749981483.322346,2287
1749981483.3224237,2258
1749981483.322502,2012
1749981483.3225799,1667
1749981483.322651,1338
1749981483.3227239,1083
1749981483.3228014,964
1749981483.3228796,1112
1749981483.322959,1525
1749981483.3230371,1993
1749981483.3231144,2272
1749981483.3231921,2289
1749981483.3232691,2073
1749981483.3233478,1739
1749981483.3234255,1401
1749981483.3235054,1133
1749981483.3235826,980
1749981483.323665,1075
1749981483.3237422,1447
1749981483.323819,1922
1749981483.3238957,2240
1749981483.3239732,2306
1749981483.3240519,2127
1749981483.3241336,1807
1749981483.324215,1459
1749981483.3245041,1173
1749981483.3245828,990
1749981483.3246543,1039
1749981483.324714,1372
1749981483.3247874,1848
1749981483.3248672,2199
1749981483.350074,2306
1749981483.351581,2163
1749981483.3516626,1862
1749981483.351736,1512
1749981483.3518095,1212
1749981483.3518825,1001
1749981483.3519552,1004
1749981483.3520272,1299
1749981483.3521004,1777
1749981483.3521729,2166
1749981483.3522449,2311
1749981483.3523166,2197
1749981483.3523903,1911
1749981483.3524625,1564
1749981483.352535,1262
1749981483.3526075,1038
1749981483.3526802,996
1749981483.3531075,1240
1749981483.353175,1702
1749981483.3532429,2124
1749981483.3533099,2317
1749981483.4039202,2247
1749981483.4189923,1982
1749981483.4194357,1634
1749981483.4197748,1315
1749981483.4201353,1070
1749981483.420528,981
1749981483.420967,1171
1749981483.4213,1608
1749981483.4216557,2050
1749981483.4220107,2282
1749981483.4223397,2252
1749981483.4227605,2009
1749981483.4230924,1669
1749981483.435754,1344
1749981483.4376938,1088
1749981483.4382753,965
1749981483.4389017,1110
1749981483.4392402,1523
1749981483.4395711,1991
1749981483.4399235,2269
1749981483.4402547,2281
1749981483.4405837,2058
1749981483.441014,1718
1749981483.4413362,1376
1749981483.441704,1104
1749981483.4420242,949
1749981483.4423485,1045
1749981483.4427872,1422
1749981483.4431102,1901
1749981483.4516757,2221
1749981483.4538484,2283
1749981483.453924,2097
1749981483.4539955,1773
1749981483.4540677,1422
1749981483.4541397,1134
1749981483.4542108,947
1749981483.454282,993
1749981483.4543536,1327
1749981483.4544256,1806
1749981483.4544978,2161
1749981483.454569,2268
1749981483.45513,2121
1749981483.4552093,1815
1749981483.4556134,1462
1749981483.4556887,1161
1749981483.4557612,953
1749981483.4558327,960
1749981483.4559042,1259
1749981483.4559762,1740
1749981483.4605107,2131
1749981483.4609056,2278
1749981483.4612336,2164
1749981483.4615839,1875
1749981483.4726212,1520
1749981483.475245,1207
1749981483.4753747,977
1749981483.4772494,937
1749981483.4773831,1191
1749981483.477718,1662
