1750240844.9096708,3588
1750240844.9373019,3223
1750240844.9377894,2705
1750240844.9382036,2227
1750240844.9388404,1865
1750240844.939522,1604
1750240844.940187,1630
1750240844.9408693,2093
1750240844.941504,2831
1750240844.9423645,3397
1750240844.942962,3543
1750240844.9436302,3258
1750240844.9445202,2753
1750240844.9453068,2236
1750240844.946068,1840
1750240844.9474096,1564
1750240844.9480329,1562
1750240844.948737,1991
1750240844.94942,2736
1750240844.9500406,3358
1750240844.9507594,3570
1750240844.9515984,3336
1750240844.9523778,2838
1750240844.9531446,2301
1750240844.9538157,1896
1750240844.95455,1625
1750240844.9551988,1578
1750240844.9558995,1905
1750240844.9566047,2557
1750240844.9574115,3177
1750240844.9582365,3469
1750240844.965788,3351
1750240844.9667068,2917
1750240844.9676216,2362
1750240844.9686587,1891
1750240844.9693885,1580
1750240844.970453,1508
1750240844.9710119,1813
1750240844.9716208,2454
1750240844.9738767,3104
1750240844.9744785,3449
1750240844.975153,3396
1750240844.975767,3003
1750240844.9763432,2452
1750240844.9769764,1953
1750240844.9777658,1621
1750240844.9786503,1510
1750240844.9793234,1758
1750240844.980031,2350
1750240844.9807897,3012
1750240844.9815013,3414
1750240844.9821942,3439
1750240844.982836,3104
1750240844.9834907,2567
1750240844.984166,2030
1750240844.9848082,1648
1750240844.9854252,1480
1750240844.9860673,1669
1750240844.9866781,2223
1750240844.9873178,2902
1750240844.9879403,3355
1750240844.9887822,3447
1750240844.9893734,3175
1750240844.9900494,2677
1750240844.9909008,2132
1750240844.9916117,1715
1750240844.9922712,1488
1750240844.992952,1603
1750240844.9935622,2108
1750240844.9941587,2804
1750240844.9948382,3315
1750240844.995335,3466
1750240844.9958007,3241
1750240844.9962432,2769
1750240844.9967937,2222
1750240844.997226,1776
1750240844.997608,1500
1750240844.9979794,1544
1750240844.9986386,2004
1750240844.9990973,2727
1750240844.9995916,3312
1750240845.0000353,3524
1750240845.0005035,3331
1750240845.000915,2868
1750240845.0013402,2318
1750240845.0017374,1867
1750240845.0022614,1565
1750240845.0027606,1525
1750240845.0032,1883
1750240845.0036557,2560
1750240845.0041487,3189
1750240845.004562,3490
1750240845.0049858,3388
1750240845.0054677,2969
1750240845.0058458,2411
1750240845.0062697,1914
1750240845.006717,1571
1750240845.0071397,1483
1750240845.0076373,1799
1750240845.0081081,2467
1750240845.0084562,3142
1750240845.0096471,3499
1750240845.0106587,3450
1750240845.0118268,3061
1750240845.012235,2513
1750240845.0132067,2002
1750240845.0135684,1640
1750240845.014272,1496
1750240845.015809,1726
1750240845.0168283,2323
1750240845.0173035,3003
1750240845.0196147,3421
1750240845.0200996,3459
1750240845.0251408,3132
1750240845.025408,2598
1750240845.0257034,2055
1750240845.0260236,1656
1750240845.0263517,1470
1750240845.0266435,1652
1750240845.0269067,2212
1750240845.027166,2907
1750240845.027437,3368
1750240845.0277784,3458
1750240845.0280895,3182
1750240845.0283966,2686
1750240845.0286481,2142
1750240845.0289345,1714
1750240845.0292985,1466
1750240845.0297556,1568
1750240845.0300875,2091
1750240845.0305386,2834
1750240845.0310118,3383
1750240845.0311553,3537
1750240845.031287,3285
1750240845.0314217,2796
1750240845.0315592,2257
1750240845.031688,1832
1750240845.0318646,1555
1750240845.032013,1561
1750240845.0321367,1968
1750240845.032268,2660
1750240845.0324013,3248
1750240845.0325298,3486
1750240845.0326653,3314
1750240845.0328124,2851
1750240845.0329466,2286
1750240845.0330744,1819
1750240845.0332155,1522
1750240845.0333495,1501
1750240845.0334733,1874
1750240845.033609,2551
1750240845.0337446,3179
1750240845.0338829,3485
1750240845.0340097,3398
1750240845.0341656,2986
1750240845.0343137,2419
1750240845.0344515,1913
1750240845.034598,1574
1750240845.0347342,1494
1750240845.0348744,1803
1750240845.0349998,2441
1750240845.0351365,3083
1750240845.0352702,3428
1750240845.0354123,3392
1750240845.0355802,3030
1750240845.0357108,2501
1750240845.0358548,1987
1750240845.0359967,1605
1750240845.036132,1448
1750240845.0362601,1707
1750240845.036388,2382
1750240845.036528,3142
1750240845.0366583,3582
1750240845.036792,3571
1750240845.0369318,3189
1750240845.037077,2659
1750240845.0372133,2163
1750240845.037354,1779
1750240845.0374908,1538
1750240845.0376325,1645
1750240845.0377662,2195
1750240845.0378945,2950
1750240845.0380242,3468
1750240845.0381713,3554
1750240845.0384045,3239
1750240845.038773,2741
1750240845.0390625,2236
1750240845.0393586,1817
1750240845.0396867,1517
1750240845.0402029,1566
1750240845.040389,2111
1750240845.040465,2937
1750240845.0407643,3531
1750240845.0409079,3637
1750240845.0411053,3321
1750240845.0411763,2839
1750240845.0412443,2363
1750240845.0415196,1946
1750240845.0418787,1587
1750240845.0420094,1531
1750240845.042692,2027
1750240845.0428333,2920
1750240845.042994,3635
1750240845.0431564,3810
1750240845.043316,3497
1750240845.0434465,3000
1750240845.043576,2541
1750240845.043708,2157
1750240845.04384,1774
1750240845.043969,1555
1750240845.044124,1804
1750240845.044283,2513
1750240845.0444393,3221
1750240845.044599,3526
1750240845.0447922,3368
1750240845.0449383,2933
1750240845.0452738,2444
1750240845.0453694,2020
1750240845.0454414,1673
1750240845.0458095,1520
1750240845.0459468,1798
1750240845.046103,2499
1750240845.0463252,3216
1750240845.04647,3553
1750240845.0466537,3439
1750240845.0467904,3017
1750240845.0469484,2506
1750240845.0471327,2052
1750240845.0472856,1702
1750240845.0474536,1522
1750240845.0476365,1734
1750240845.047824,2367
1750240845.0480158,3095
1750240845.0482018,3501
1750240845.048357,3474
1750240845.0486412,3106
1750240845.0487761,2609
1750240845.0489511,2133
1750240845.0519621,1751
1750240845.0520573,1512
1750240845.0530431,1638
1750240845.0549128,2211
1750240845.056123,2969
1750240845.0576282,3459
1750240845.0577626,3511
1750240845.0579016,3184
1750240845.0581036,2695
1750240845.058238,2208
1750240845.0583708,1815
1750240845.0593994,1538
1750240845.0595348,1579
1750240845.0596707,2076
1750240845.0602236,2842
1750240845.0606058,3413
1750240845.060742,3554
1750240845.0608754,3278
1750240845.0610118,2795
1750240845.0611546,2291
1750240845.061728,1877
1750240845.0620067,1566
1750240845.0624263,1532
1750240845.0626733,1953
1750240845.0628712,2708
1750240845.0631435,3342
1750240845.0633523,3557
1750240845.0635943,3339
1750240845.063874,2878
1750240845.0640957,2369
1750240845.0642924,1941
1750240845.0645468,1609
1750240845.064796,1518
1750240845.065568,1874
1750240845.0657785,2609
1750240845.0659945,3287
1750240845.0662818,3562
1750240845.0665164,3397
1750240845.0667443,2959
1750240845.0669606,2454
1750240845.0671735,2011
1750240845.0674007,1648
1750240845.0676143,1474
1750240845.0678253,1732
1750240845.0680568,2428
1750240845.0682986,3171
1750240845.068523,3550
1750240845.0687346,3462
1750240845.068944,3042
1750240845.0691514,2521
1750240845.06936,2063
1750240845.0695748,1700
1750240845.0698373,1487
1750240845.0700305,1662
1750240845.0702555,2292
1750240845.0704515,3063
1750240845.070647,3519
1750240845.0709317,3505
1750240845.0711465,3116
1750240845.0713706,2606
1750240845.0715604,2147
1750240845.0717945,1783
1750240845.0720637,1527
1750240845.0722804,1606
1750240845.0725553,2154
1750240845.0728393,2935
1750240845.0730553,3470
1750240845.0732558,3544
1750240845.0734868,3205
1750240845.0737097,2699
1750240845.073953,2215
1750240845.0741456,1837
1750240845.074356,1562
1750240845.0745647,1584
1750240845.074818,2051
1750240845.0750146,2794
1750240845.075228,3353
1750240845.0754695,3490
1750240845.0767503,3221
1750240845.0769649,2748
1750240845.0771406,2248
1750240845.0773184,1838
1750240845.0775049,1535
1750240845.0777438,1509
1750240845.077923,1928
1750240845.078141,2670
1750240845.0783653,3289
1750240845.078602,3495
1750240845.0787942,3282
1750240845.0789783,2828
1750240845.0791638,2325
1750240845.079336,1900
1750240845.0795455,1573
1750240845.079724,1478
1750240845.079944,1824
1750240845.080202,2557
1750240845.0804064,3254
1750240845.0806036,3556
1750240845.080789,3403
1750240845.081062,2953
1750240845.0812001,2427
1750240845.081343,1985
1750240845.0814812,1648
1750240845.081631,1496
1750240845.081843,1743
1750240845.0819914,2399
1750240845.082429,3109
1750240845.082572,3481
1750240845.082713,3416
1750240845.08285,3023
1750240845.0829868,2517
1750240845.0831938,2054
1750240845.0833251,1686
1750240845.0834677,1475
1750240845.083606,1651
1750240845.0837653,2276
1750240845.0839138,3040
1750240845.0840874,3500
1750240845.0842335,3498
1750240845.0843668,3116
1750240845.0845082,2591
1750240845.0846362,2106
1750240845.0847795,1737
1750240845.0849557,1504
1750240845.0851314,1606
1750240845.0853176,2142
1750240845.0854938,2888
1750240845.0856705,3404
1750240845.085848,3497
1750240845.086036,3191
1750240845.086212,2691
1750240845.0864048,2179
1750240845.0865805,1773
1750240845.0868044,1499
1750240845.088992,1541
1750240845.08917,2026
1750240845.089282,2774
1750240845.089497,3339
1750240845.089708,3488
1750240845.089916,3233
1750240845.090128,2764
1750240845.090355,2257
1750240845.0905704,1834
1750240845.0907955,1519
1750240845.0910025,1486
1750240845.09124,1917
1750240845.0914557,2690
1750240845.0916789,3342
1750240845.0918512,3564
1750240845.0920854,3342
1750240845.0923162,2876
1750240845.0925708,2373
1750240845.0927944,1951
1750240845.0930212,1613
1750240845.0931883,1492
1750240845.0933518,1817
1750240845.093568,2548
1750240845.0938022,3253
1750240845.0940235,3554
1750240845.0942552,3396
1750240845.094539,2950
1750240845.094771,2438
1750240845.0949948,1999
1750240845.095201,1648
1750240845.0953748,1479
1750240845.095496,1726
1750240845.095653,2400
1750240845.0957808,3131
1750240845.0960069,3509
1750240845.0962563,3440
1750240845.0964904,3044
1750240845.0967228,2533
1750240845.0969198,2063
1750240845.0971522,1691
1750240845.0973577,1477
1750240845.0975542,1637
1750240845.0977566,2221
1750240845.0979533,2942
1750240845.0981596,3387
1750240845.0983734,3415
1750240845.0986242,3074
1750240845.0988529,2560
1750240845.0990572,2055
1750240845.1001208,1679
1750240845.1003506,1470
1750240845.100562,1602
1750240845.1007817,2133
1750240845.1009696,2840
1750240845.1012034,3323
1750240845.1014369,3419
1750240845.101728,3137
1750240845.1019871,2641
1750240845.10221,2111
1750240845.1024764,1696
1750240845.1027021,1445
1750240845.102941,1520
1750240845.103162,2016
1750240845.1033938,2752
1750240845.1036146,3313
1750240845.10386,3478
1750240845.104094,3244
1750240845.1042993,2772
1750240845.1045344,2243
1750240845.1047368,1812
1750240845.1049247,1517
1750240845.1051044,1498
1750240845.1051862,1898
1750240845.105265,2611
1750240845.105774,3231
1750240845.1059213,3484
1750240845.1061149,3322
1750240845.1063042,2879
1750240845.1065202,2343
1750240845.1068084,1885
1750240845.1070437,1562
1750240845.1071198,1489
1750240845.1071954,1828
1750240845.107338,2516
1750240845.1075141,3178
1750240845.1076963,3494
1750240845.107897,3395
1750240845.1080792,2981
1750240845.108239,2440
1750240845.1084218,1954
1750240845.1086693,1605
1750240845.1088908,1482
1750240845.109136,1755
1750240845.1096463,2397
1750240845.1098692,3078
1750240845.1101136,3453
1750240845.111197,3436
1750240845.1114523,3088
1750240845.1117115,2572
1750240845.1119878,2062
1750240845.112224,1674
1750240845.1125216,1505
1750240845.112805,1745
1750240845.1130717,2392
1750240845.1133232,3128
1750240845.11357,3550
1750240845.113803,3549
1750240845.11407,3196
1750240845.1143365,2679
1750240845.1146188,2157
1750240845.1148906,1735
1750240845.115146,1465
1750240845.1154149,1547
1750240845.1156838,2063
1750240845.115961,2794
1750240845.1162367,3321
1750240845.1165195,3454
1750240845.1167934,3186
1750240845.117068,2686
1750240845.1172214,2142
1750240845.118162,1724
1750240845.1185544,1475
1750240845.1192322,1540
1750240845.1196766,2000
1750240845.1199183,2698
1750240845.1201138,3246
1750240845.1205933,3442
1750240845.1208801,3247
1750240845.123038,2781
1750240845.1236944,2222
1750240845.1239097,1765
1750240845.1242282,1484
1750240845.1246629,1504
1750240845.1250029,1923
1750240845.128427,2618
1750240845.1285677,3216
1750240845.1287005,3472
1750240845.1303375,3337
1750240845.1306918,2907
1750240845.1307774,2348
1750240845.1309187,1864
1750240845.1310499,1543
1750240845.1312118,1492
1750240845.1313446,1836
1750240845.1314788,2501
1750240845.1336775,3139
1750240845.1348002,3464
1750240845.1349306,3400
1750240845.135065,3004
1750240845.1355166,2441
1750240845.1356478,1919
1750240845.1357806,1560
1750240845.1359122,1455
1750240845.136043,1741
1750240845.1361747,2373
1750240845.1363058,3041
1750240845.136437,3431
1750240845.1365657,3447
1750240845.1366975,3112
1750240845.1368284,2577
1750240845.1475496,2039
1750240845.1950607,1654
1750240845.2394235,1502
1750240845.303038,1727
1750240845.4068182,2316
1750240845.4869015,3002
1750240845.4873397,3439
1750240845.4875073,3507
1750240845.4877317,3205
1750240845.4878833,2677
1750240845.4880452,2113
1750240845.4883316,1691
1750240845.488524,1486
1750240845.488691,1644
1750240845.4888728,2187
1750240845.4890175,2893
1750240845.489192,3390
1750240845.4893723,3524
1750240845.4895363,3275
1750240845.4901516,2776
1750240845.4903688,2204
1750240845.4905605,1748
1750240845.49079,1483
1750240845.4909508,1558
1750240845.4912195,2038
1750240845.491467,2745
1750240845.491658,3292
1750240845.4920373,3484
1750240845.4930887,3297
1750240845.4932797,2850
1750240845.4934342,2301
1750240845.4936993,1833
1750240845.4939063,1525
1750240845.4940543,1532
1750240845.4942722,1977
1750240845.4944475,2723
1750240845.4946573,3356
1750240845.4948509,3604
1750240845.4950452,3434
1750240845.4954517,2980
1750240845.4956203,2425
1750240845.4957674,1943
1750240845.4959779,1597
1750240845.4963753,1506
1750240845.4969966,1833
1750240845.4974394,2519
1750240845.5131161,3190
1750240845.640051,3526
1750240845.6726766,3449
1750240845.8443294,3048
1750240845.9299781,2502
1750240845.9446054,2002
1750240846.0155501,1638
1750240846.0258265,1504
1750240846.1023118,1765
1750240846.1034913,2393
1750240846.1041355,3064
1750240846.104209,3437
1750240846.1042802,3426
1750240846.1043513,3087
1750240846.1044223,2577
1750240846.104493,2057
1750240846.104572,1647
1750240846.1046426,1449
1750240846.1047137,1671
1750240846.1052032,2326
1750240846.1053815,3095
1750240846.1054885,3557
1750240846.10556,3578
1750240846.1056304,3230
1750240846.1057014,2714
1750240846.105772,2202
1750240846.105842,1800
1750240846.105913,1546
1750240846.105983,1640
1750240846.1060534,2166
1750240846.1061234,2906
1750240846.106194,3425
1750240846.1062646,3537
1750240846.1063347,3262
1750240846.1064057,2783
1750240846.1064763,2263
1750240846.1085262,1829
1750240846.108601,1526
1750240846.1086717,1551
1750240846.108743,2043
1750240846.108814,2825
1750240846.1088855,3437
1750240846.1089563,3616
1750240846.1090271,3363
1750240846.109098,2874
1750240846.1091692,2349
1750240846.1093407,1925
1750240846.109412,1613
1750240846.1095035,1554
1750240846.1099358,1926
1750240846.1100318,2651
1750240846.1101043,3307
1750240846.1101747,3576
1750240846.111118,3407
1750240846.1115549,2956
1750240846.111663,2429
1750240846.1186898,1972
1750240846.1199706,1621
1750240846.120134,1510
1750240846.120208,1862
1750240846.1203141,2633
1750240846.1205049,3382
1750240846.1214015,3705
1750240846.1918392,3542
1750240846.2031198,3076
1750240846.2032688,2556
1750240846.2033846,2125
1750240846.2050898,1774
1750240846.2053652,1567
1750240846.2086658,1750
1750240846.20878,2379
1750240846.208862,3114
1750240846.2090003,3530
1750240846.2090685,3496
1750240846.2091348,3117
1750240846.2094727,2615
1750240846.2095456,2140
1750240846.2096374,1750
1750240846.2097695,1515
1750240846.209837,1690
1750240846.2099226,2345
1750240846.2101686,3157
1750240846.2102387,3642
1750240846.2103255,3634
1750240846.2104385,3240
1750240846.2105043,2718
1750240846.2109454,2238
1750240846.211013,1857
1750240846.211097,1578
1750240846.211208,1623
1750240846.2112756,2132
1750240846.2113414,2897
1750240846.2122614,3445
1750240846.2123313,3553
1750240846.2129714,3252
1750240846.2130783,2767
1750240846.2131443,2278
1750240846.2133713,1874
1750240846.2134712,1570
1750240846.213538,1571
1750240846.2137754,2054
1750240846.2206056,2851
1750240846.2206802,3471
1750240846.2207475,3627
1750240846.2208166,3347
1750240846.2208834,2866
1750240846.2209485,2379
1750240846.2210155,1973
1750240846.2210836,1632
1750240846.2211473,1542
1750240846.221206,1942
1750240846.2212706,2739
1750240846.221335,3430
1750240846.2214005,3651
1750240846.2214658,3408
1750240846.2215314,2951
1750240846.2215972,2492
1750240846.221663,2086
1750240846.2217286,1694
1750240846.2219918,1492
1750240846.2220628,1812
1750240846.2221289,2647
1750240846.2224073,3480
1750240846.222479,3812
1750240846.2225444,3590
1750240846.2228794,3089
1750240846.2710433,2606
1750240846.2711413,2234
1750240846.2714734,1881
1750240846.2716365,1600
1750240846.2717578,1709
1750240846.271952,2327
1750240846.272042,3099
1750240846.2721467,3530
1750240846.2722352,3471
1750240846.2723305,3066
1750240846.2724202,2579
1750240846.2725294,2152
1750240846.2726352,1784
1750240846.2727182,1519
1750240846.2728057,1643
1750240846.2728932,2277
1750240846.2737944,3103
1750240846.2740028,3589
1750240846.2740867,3549
1750240846.2741704,3120
1750240846.274254,2608
1750240846.2748215,2183
1750240846.274957,1852
1750240846.2750413,1577
1750240846.2751462,1598
1750240846.27523,2107
1750240846.2756503,2909
1750240846.2757359,3489
1750240846.27599,3581
1750240846.2760754,3235
1750240846.27616,2726
1750240846.276244,2260
1750240846.276472,1900
1750240846.2765834,1602
1750240846.2768106,1558
1750240846.277004,1984
1750240846.277182,2761
1750240846.277456,3398
1750240846.2777195,3573
1750240846.288636,3290
1750240846.2887175,2794
1750240846.2887864,2309
1750240846.288853,1932
1750240846.2889185,1619
1750240846.288986,1519
1750240846.289148,1874
1750240846.2892072,2633
1750240846.2892723,3327
1750240846.2893376,3575
1750240846.2894042,3343
1750240846.2894764,2867
1750240846.2895439,2388
1750240846.2896097,2000
1750240846.2896764,1652
1750240846.289742,1474
1750240846.2898078,1775
1750240846.2898726,2573
1750240846.2899382,3389
1750240846.2900047,3732
1750240846.2900698,3526
1750240846.2901354,3033
1750240846.290201,2553
1750240846.290267,2169
1750240846.2903314,1797
1750240846.2903962,1516
1750240846.2904608,1683
1750240846.2905266,2417
1750240846.290592,3290
1750240846.2906568,3731
1750240846.290722,3595
1750240846.2907867,3122
1750240846.2908516,2646
1750240846.2909167,2277
1750240846.2909846,1923
1750240846.2910492,1587
1750240846.2911148,1610
1750240846.2911797,2191
1750240846.2912447,3025
1750240846.2913098,3541
1750240846.2914464,3521
1750240846.2915144,3117
1750240846.2915795,2643
1750240846.2916377,2238
1750240846.2920048,1870
1750240846.2920802,1529
1750240846.2921457,1529
1750240846.29221,2101
1750240846.2922752,2994
1750240846.29234,3597
1750240846.2924044,3623
1750240846.2924695,3206
1750240846.292534,2704
1750240846.2925982,2302
1750240846.2926629,1966
1750240846.2927277,1615
1750240846.2927923,1516
1750240846.292857,1981
1750240846.2929213,2871
1750240846.2929857,3572
1750240846.29305,3695
1750240846.2931147,3322
1750240846.293174,2822
1750240846.2932339,2423
1750240846.293298,2101
1750240846.2933683,1729
1750240846.293432,1524
1750240846.2934961,1864
1750240846.2935603,2721
1750240846.2936246,3517
1750240846.293689,3761
1750240846.2937543,3453
1750240846.29382,2934
1750240846.2938845,2494
1750240846.2939487,2166
1750240846.2940133,1814
1750240846.2940774,1549
1750240846.294142,1729
1750240846.2942057,2438
1750240846.2942705,3219
1750240846.294335,3571
1750240846.2943993,3398
1750240846.2944634,2932
1750240846.2945285,2464
1750240846.2945926,2096
1750240846.294657,1750
1750240846.2947211,1494
1750240846.2947857,1664
1750240846.29485,2370
1750240846.2949135,3204
1750240846.294978,3615
1750240846.2950425,3467
1750240846.3355556,2991
1750240846.3654337,2525
1750240846.3655102,2172
1750240846.3655777,1836
1750240846.3656468,1519
1750240846.3657126,1590
1750240846.3657784,2268
1750240846.3658435,3206
1750240846.3659108,3751
1750240846.3659766,3659
1750240846.3660448,3160
1750240846.3661115,2671
1750240846.3661892,2334
1750240846.366255,2019
1750240846.3663204,1635
1750240846.3663857,1529
1750240846.3664505,2035
1750240846.3665152,2952
1750240846.3665805,3618
1750240846.3666456,3671
1750240846.3667104,3241
1750240846.3667758,2739
1750240846.3668418,2372
1750240846.3669074,2073
1750240846.3669758,1707
1750240846.367041,1527
1750240846.3671057,1889
1750240846.367171,2718
1750240846.3672369,3425
1750240846.3673015,3592
1750240846.367366,3253
1750240846.3674314,2746
1750240846.3674974,2322
1750240846.3675628,1998
1750240846.3676229,1661
1750240846.3885665,1502
1750240846.3886478,1868
1750240846.3887174,2727
1750240846.3887846,3504
1750240846.3888526,3721
1750240846.3889194,3388
1750240846.3889854,2866
1750240846.389052,2448
1750240846.389118,2136
1750240846.3891785,1770
1750240846.389372,1487
1750240846.3894868,1714
1750240846.389561,2545
1750240846.3896341,3438
1750240846.3897061,3785
1750240846.3897893,3506
1750240846.4164224,2965
1750240846.4673653,2541
1750240846.4755907,2260
1750240846.495569,1915
1750240846.496756,1544
1750240846.4968479,1601
1750240846.4969277,2313
1750240846.4970071,3248
1750240846.4970858,3727
1750240846.5120058,3558
1750240846.5407782,3034
1750240846.5414283,2569
1750240846.541496,2258
1750240846.5415614,1932
1750240846.5416272,1557
1750240846.5416906,1542
1750240846.5561492,2167
1750240846.556228,3112
1750240846.5562978,3691
1750240846.5780857,3627
1750240846.5781674,3133
1750240846.5782354,2638
1750240846.5783014,2306
1750240846.5783675,2019
1750240846.5784628,1664
1750240846.578534,1548
1750240846.5785992,1989
1750240846.5786672,2818
1750240846.578733,3428
1750240846.578799,3482
1750240846.578866,3089
1750240846.578932,2607
1750240846.578998,2230
1750240846.579064,1913
1750240846.5791297,1569
1750240846.5791955,1490
1750240846.5792615,2011
1750240846.5793269,2979
1750240846.5793927,3715
1750240846.5794587,3796
1750240846.579524,3354
1750240846.5795887,2838
1750240846.579648,2486
1750240846.5797136,2191
1750240846.5797794,1765
1750240846.5798452,1465
1750240846.579911,1783
1750240846.579976,2727
1750240846.5800414,3619
1750240846.5801086,3859
1750240846.5801747,3467
1750240846.5802405,2911
1750240846.5803063,2544
1750240846.5803716,2305
1750240846.580437,1942
1750240846.5805073,1567
1750240846.5805714,1667
1750240846.5806403,2404
1750240846.5807061,3265
1750240846.5807717,3635
1750240846.580837,3409
1750240846.5809028,2908
1750240846.5809686,2475
1750240846.5810347,2161
1750240846.5811002,1817
1750240846.5811615,1499
1750240846.5812247,1608
1750240846.5812902,2309
1750240846.5813556,3184
1750240846.5814211,3621
1750240846.5814867,3467
1750240846.5815523,2973
1750240846.5816176,2498
1750240846.5816832,2159
1750240846.581749,1849
1750240846.613061,1534
1750240846.61314,1548
1750240846.6132,2114
1750240846.6132624,2953
1750240846.6133287,3471
1750240846.6367815,3433
1750240846.7119038,2997
1750240846.7120447,2521
1750240846.712154,2158
1750240846.712261,1846
1750240846.712327,1520
1750240846.712393,1490
1750240846.712458,2036
1750240846.7125266,2946
1750240846.7125912,3577
1750240846.712655,3600
1750240846.759958,3160
1750240846.7892907,2662
1750240846.790096,2308
1750240846.7901678,2010
1750240846.790235,1628
1750240846.7903035,1442
1750240846.790369,1844
1750240846.7919016,2754
1750240846.7938526,3523
1750240846.7939496,3679
1750240846.794294,3288
1750240846.8126864,2767
1750240846.8128374,2383
1750240846.8129056,2086
1750240846.8129714,1705
1750240846.8130372,1453
1750240846.8131025,1770
1750240846.8131633,2675
1750240846.8132234,3548
1750240846.8132887,3814
1750240846.8133538,3458
1750240846.8134894,2888
1750240846.813555,2463
1750240846.8136196,2191
1750240846.8136847,1855
1750240846.8137515,1523
1750240846.8138168,1618
1750240846.8138819,2310
1750240846.8139465,3153
1750240846.8140116,3565
1750240846.8140762,3398
1750240846.814141,2908
1750240846.8142056,2439
1750240846.8142705,2087
1750240846.8143358,1743
1750240846.8144002,1454
1750240846.814465,1601
1750240846.8145347,2345
1750240846.8145993,3267
1750240846.814664,3730
1750240846.8147287,3557
1750240846.8147929,3017
1750240846.814858,2516
1750240846.8149257,2185
1750240846.8149905,1890
1750240846.8150556,1564
1750240846.8151286,1542
1750240846.8151937,2084
1750240846.8152587,2938
1750240846.8153229,3502
1750240846.8153882,3500
1750240846.8154533,3072
1750240846.815518,2572
1750240846.815581,2177
1750240846.8156395,1845
1750240846.8157036,1519
1750240846.8157682,1479
1750240846.8158326,1983
1750240846.8158972,2841
1750240846.8159618,3466
1750240846.8160262,3538
1750240846.8160908,3152
1750240846.8161557,2648
1750240846.8162215,2232
1750240846.8162873,1900
1750240846.816352,1566
1750240846.8164163,1459
1750240846.8164814,1886
1750240846.8165472,2747
1750240846.8166113,3464
1750240846.8166754,3629
1750240846.8167398,3278
1750240846.8168044,2758
1750240846.8168685,2329
1750240846.8169327,2007
1750240846.8169968,1669
1750240846.8170614,1484
1750240846.8171253,1807
1750240846.8171837,2641
1750240846.8172464,3442
1750240846.817311,3714
1750240846.8173754,3423
1750240846.817725,2894
1750240846.818151,2435
1750240846.8205214,2102
1750240846.9118912,1759
1750240846.912166,1499
1750240846.9122398,1690
1750240846.9123135,2430
1750240846.9123867,3268
1750240846.9124603,3660
1750240846.9125335,3491
1750240846.9126067,3006
1750240846.9126794,2526
1750240846.9127522,2155
1750240846.9128246,1799
1750240846.9129033,1502
1750240846.9129755,1617
1750240846.91305,2304
1750240846.9131355,3185
1750240846.9132226,3665
1750240846.9133093,3554
1750240846.9133956,3061
1750240846.913482,2553
1750240846.9135683,2179
1750240846.913655,1860
1750240846.9137414,1557
1750240846.9843118,1588
1750240846.984404,2181
1750240846.9844775,3069
1750240846.9845543,3646
1750240846.9846237,3640
1750240846.984701,3191
1750240846.984771,2670
1750240846.9848423,2268
1750240846.9849164,1948
1750240846.98499,1623
1750240846.9850585,1547
1750240846.985138,1982
1750240846.9858902,2781
1750240846.98597,3398
1750240847.0025523,3513
1750240847.0026352,3176
1750240847.002712,2681
1750240847.002788,2229
1750240847.002864,1868
1750240847.0029397,1552
1750240847.0030155,1496
1750240847.0030918,1944
1750240847.0031672,2775
1750240847.0032427,3450
1750240847.0033183,3614
1750240847.0034041,3302
1750240847.0034795,2801
1750240847.0035558,2340
1750240847.0036309,1975
1750240847.0037026,1633
1750240847.0037785,1473
1750240847.0038543,1793
1750240847.0039296,2576
1750240847.0040054,3328
1750240847.0040812,3609
1750240847.0041564,3373
1750240847.0042317,2883
1750240847.004308,2414
1750240847.004383,2047
1750240847.0044587,1697
1750240847.0045338,1470
1750240847.0046096,1704
1750240847.004727,2476
1750240847.0615947,3325
1750240847.0723653,3708
1750240847.072439,3511
1750240847.072926,2995
1750240847.0915115,2508
1750240847.1089518,2151
1750240847.1100955,1812
1750240847.1389158,1516
1750240847.1396754,1625
1750240847.1456769,2314
1750240847.1530948,3206
1750240847.153161,3696
1750240847.1532235,3588
1750240847.1533058,3107
1750240847.1533728,2625
1750240847.1585073,2263
1750240847.1585793,1914
1750240847.1586473,1553
1750240847.1587138,1545
1750240847.158779,2148
1750240847.1588433,3072
1750240847.1589084,3666
1750240847.158975,3645
1750240847.1590393,3180
1750240847.1591034,2667
1750240847.1591687,2286
1750240847.1592333,1965
1750240847.1592987,1618
1750240847.1593633,1540
1750240847.1594276,2028
1750240847.1594932,2907
1750240847.1595578,3557
1750240847.1596158,3627
1750240847.1596859,3215
1750240847.15975,2701
1750240847.159814,2313
1750240847.1598783,2019
1750240847.1599422,1688
1750240847.1600063,1539
1750240847.1600707,1906
1750240847.1601353,2732
1750240847.1601992,3451
1750240847.1602638,3634
1750240847.1603281,3297
1750240847.1603932,2775
1750240847.1604676,2333
1750240847.1605337,1995
1750240847.160598,1645
1750240847.1606662,1466
1750240847.1607306,1826
1750240847.1607947,2715
1750240847.1608584,3548
1750240847.1609225,3793
1750240847.1609871,3440
1750240847.1610508,2877
1750240847.1611166,2452
1750240847.1660168,2178
1750240847.166086,1858
1750240847.1661541,1564
1750240847.16622,1712
1750240847.1662848,2448
1750240847.1663496,3303
1750240847.1664155,3678
1750240847.1664798,3453
1750240847.166544,2936
1750240847.1666138,2493
1750240847.1666803,2189
1750240847.1667445,1864
1750240847.1668098,1547
1750240847.1668744,1643
1750240847.1669383,2354
1750240847.1670034,3277
1750240847.1670678,3767
1750240847.1671314,3627
1750240847.1671956,3114
1750240847.1672597,2624
1750240847.1673255,2282
1750240847.1673946,1956
1750240847.1674628,1604
1750240847.1675313,1583
1750240847.1675997,2157
1750240847.1676626,3047
1750240847.1677222,3612
1750240847.167791,3572
1750240847.1678598,3104
1750240847.1679285,2607
1750240847.1679971,2255
1750240847.168066,1961
1750240847.1681342,1625
1750240847.1682034,1542
1750240847.1682715,2016
1750240847.1683404,2905
1750240847.1684086,3603
1750240847.1964204,3721
1750240847.303942,3319
1750240847.3788655,2805
1750240847.3813763,2440
1750240847.3814478,2182
1750240847.3815143,1852
1750240847.3815818,1649
1750240847.381648,1965
1750240847.3817136,2829
1750240847.3817956,3637
1750240847.385748,3790
1750240847.3858225,3244
1750240847.3858883,2596
1750240847.3859553,2491
1750240847.3860214,3072
1750240847.3860867,3902
1750240847.386152,4656
1750240847.3862169,5438
1750240847.3862853,6399
1750240847.3863518,7250
1750240847.386415,7517
1750240847.3864803,7027
1750240847.3865457,6098
1750240847.3866115,5245
1750240847.3866768,4726
1750240847.3867426,4436
1750240847.3868098,4347
1750240847.3868768,4733
1750240847.3869424,5694
1750240847.3870077,6767
1750240847.3870723,7267
1750240847.3871372,6939
1750240847.387211,6094
1750240847.3872776,5293
1750240847.3873432,4819
1750240847.3874145,4577
1750240847.387491,4485
1750240847.3875585,4788
1750240847.3876274,5600
1750240847.387692,6502
1750240847.3877563,6885
1750240847.387821,6596
1750240847.387886,5916
1750240847.3879516,5280
1750240847.3880239,4867
1750240847.38809,4580
1750240847.3881545,4373
1750240847.3882208,4523
1750240847.3882859,5180
1750240847.388353,6041
1750240847.3884234,6646
1750240847.388513,6922
1750240847.3885787,6958
1750240847.3886435,6741
1750240847.3887086,6084
1750240847.3887873,4966
1750240847.3888514,3762
1750240847.3889163,3175
1750240847.3889806,3489
1750240847.3890452,4233
1750240847.3891108,4685
1750240847.3891754,4733
1750240847.3894486,4684
1750240847.3895178,4758
1750240847.3895833,4801
1750240847.3896503,4562
1750240847.3897166,4031
1750240847.3897817,3648
1750240847.3898468,3788
1750240847.3899121,4295
1750240847.3899786,4641
1750240847.390049,4668
1750240847.3901143,4568
1750240847.39018,4511
1750240847.390245,4420
1750240847.3903103,4116
1750240847.3903751,3578
1750240847.3904414,3174
1750240847.3905075,3337
1750240847.3905733,4018
1750240847.3906384,4664
1750240847.3907034,4885
1750240847.3907769,4746
1750240847.3908415,4472
1750240847.3909068,4177
1750240847.3909733,3800
1750240847.3910384,3291
1750240847.3911052,2891
1750240847.3911703,3016
1750240847.3912356,3710
1750240847.3913023,4478
1750240847.3913674,4823
1750240847.3914309,4701
1750240847.3914988,4322
1750240847.391564,3907
1750240847.391622,3497
1750240847.3916829,3052
1750240847.391747,2701
1750240847.3918295,2803
1750240847.4120648,3453
1750240847.4125652,4246
1750240847.4129531,4653
1750240847.4133759,4570
1750240847.4460056,4181
1750240847.4461179,3738
1750240847.4462218,3318
1750240847.446993,2881
1750240847.4471016,2493
1750240847.4472048,2521
1750240847.4473078,3153
1750240847.4474103,4059
1750240847.4475138,4613
1750240847.448445,4579
1750240847.4485698,4131
1750240847.4486766,3631
1750240847.4487796,3237
1750240847.4488826,2875
1750240847.4489853,2467
1750240847.4497852,2317
1750240847.450921,2751
1750240847.4510262,3620
1750240847.451428,4302
1750240847.4515448,4412
1750240847.4517415,4017
1750240847.4530058,3492
1750240847.4531498,3079
1750240847.4533525,2750
1750240847.4534574,2371
1750240847.4535604,2166
1750240847.4536679,2500
1750240847.4537718,3339
1750240847.4538758,4096
1750240847.4539795,4301
1750240847.4540823,3953
1750240847.4541857,3410
1750240847.454289,2968
1750240847.454392,2654
1750240847.454495,2315
1750240847.4545977,2075
1750240847.4546921,2287
1750240847.454767,3004
1750240847.4548407,3745
1750240847.4549143,4024
1750240847.4549882,3782
1750240847.4550617,3289
1750240847.4906378,2829
1750240847.4907808,2469
1750240847.4908726,2113
1750240847.4909613,1865
1750240847.491053,2081
1750240847.4911416,2845
1750240847.4912302,3689
1750240847.4913187,4056
1750240847.4914074,3839
1750240847.4914956,3312
1750240847.491584,2826
1750240847.4918144,2483
1750240847.4919047,2156
1750240847.491993,1841
1750240847.492081,1882
1750240847.4921691,2481
1750240847.5071073,3317
1750240847.50722,3808
1750240847.5218375,3732
1750240847.5221002,3261
1750240847.5717602,2754
1750240847.6819508,2375
1750240847.6820707,2057
1750240847.6821964,1740
1750240847.6823068,1720
1750240847.6824157,2241
1750240847.6825223,3076
1750240847.6830695,3642
1750240847.6831863,3646
1750240847.6832933,3204
1750240847.6835213,2681
1750240847.683891,2303
1750240847.6843855,1995
1750240847.6844974,1584
1750240847.6846054,1359
1750240847.6848574,1776
1750240847.685378,2759
1750240847.6854963,3547
1750240847.6905692,3567
1750240847.724653,2976
1750240847.725537,2458
1750240847.725608,2302
1750240847.7256753,2121
1750240847.72879,1504
1750240847.7288797,1005
1750240847.7289507,1578
1750240847.7290175,3078
1750240847.7290854,3809
1750240847.7291458,2359
1750240847.7292101,-646
1750240847.729279,-2912
1750240847.7293472,-2863
1750240847.7294152,-1212
1750240847.7294836,-49
1750240847.7295506,-317
1750240847.729618,-959
1750240847.7296846,-532
1750240847.7297518,897
1750240847.729818,2021
1750240847.7298875,1870
1750240847.7299547,717
1750240847.7300217,-496
1750240847.7300892,-1173
1750240847.7301557,-1374
1750240847.730234,-1212
1750240847.7303076,-531
1750240847.7303813,611
1750240847.730455,1601
1750240847.7305298,1753
1750240847.7306032,1020
1750240847.730677,-49
1750240847.7307503,-838
1750240847.7308242,-1120
1750240847.7308977,-1025
1750240847.7309716,-730
1750240847.7310455,-207
1750240847.7311196,495
1750240847.7311933,1051
1750240847.731267,1108
1750240847.731341,687
1750240847.7314146,86
1750240847.731488,-357
1750240847.731562,-545
1750240847.7316334,-609
1750240847.731692,-658
1750240847.7317872,-504
1750240847.7319105,-12
1750240847.7319849,599
1750240847.7320588,913
1750240847.7321332,810
1750240847.7322068,458
1750240847.7322803,127
1750240847.7323537,-98
1750240847.732428,-319
1750240847.7325017,-610
1750240847.7325757,-695
1750240847.73265,-308
1750240847.732724,410
1750240847.7327979,946
1750240847.7328715,1018
1750240847.7329524,713
1750240847.7330267,337
1750240847.7331007,52
1750240847.733174,-192
1750240847.7332482,-509
1750240847.7333224,-670
1750240847.7333963,-350
1750240847.7334702,393
1750240847.7335443,1034
1750240847.7336183,1193
1750240847.7336922,909
1750240847.733766,507
1750240847.7338402,201
1750240847.733914,-40
1750240847.733988,-366
1750240847.7340622,-583
1750240847.7341363,-308
1750240847.73421,479
1750240847.7342834,1227
1750240847.7343569,1445
1750240847.7344306,1146
1750240847.7345042,705
1750240847.7345781,412
1750240847.7346516,236
1750240847.7347257,-48
1750240847.7347994,-344
1750240847.7348735,-207
1750240847.7349515,514
1750240847.7350252,1320
1750240847.735628,1608
1750240847.8241034,1313
1750240847.8634593,810
1750240847.8639128,491
1750240847.864019,360
1750240847.8641229,131
1750240847.86448,-200
1750240847.864591,-117
1750240847.8646944,678
1750240847.8648064,1710
1750240847.8649101,2182
1750240847.8650117,1857
1750240847.8651528,1143
1750240847.8652556,566
1750240847.8653567,122
1750240847.8654585,-637
1750240847.8655596,-1800
1750240847.865661,-2518
1750240847.8657634,-1834
1750240847.8658652,197
1750240847.8659675,2473
1750240847.8660681,3961
1750240847.8678422,4413
1750240847.8682497,4306
1750240847.8696542,4072
1750240847.8740542,3619
1750240847.8745198,2685
1750240847.885447,1649
1750240847.928867,1248
1750240847.9632022,1682
1750240848.0118895,2344
1750240848.0119815,2674
1750240848.0120587,2728
1750240848.0121357,2967
1750240848.012213,3429
1750240848.0122907,3526
1750240848.0123682,2781
1750240848.012444,1800
1750240848.0125268,1672
1750240848.0126073,2542
1750240848.0126832,3136
1750240848.0127592,2284
1750240848.0128329,329
1750240848.0129054,-1129
1750240848.0129793,-995
1750240848.0130525,219
1750240848.0131257,1068
1750240848.0132012,978
1750240848.0138485,744
1750240848.042543,1282
1750240848.045083,2376
1750240848.0454822,3081
1750240848.0459223,2848
1750240848.046296,1959
1750240848.047816,1016
1750240848.0482025,330
1750240848.048602,-127
1750240848.0489807,-236
1750240848.049359,333
1750240848.0497367,1538
1750240848.0598645,2681
1750240848.0833607,2998
1750240848.0862203,2401
1750240848.086498,1410
1750240848.0866055,635
1750240848.0926435,307
1750240848.1056392,299
1750240848.1057482,468
1750240848.105851,906
1750240848.1059535,1606
1750240848.1060557,2225
1750240848.1061585,2331
1750240848.1062603,1911
1750240848.1063616,1308
1750240848.1064634,919
1750240848.1066039,819
1750240848.1067126,798
1750240848.1068137,708
1750240848.1069148,795
1750240848.1077657,1277
1750240848.107873,1933
1750240848.1082442,2243
1750240848.1083455,2033
1750240848.1084747,1559
1750240848.1085815,1229
1750240848.1086838,1134
1750240848.1087854,1051
1750240848.1118534,789
1750240848.1121435,645
1750240848.1122198,991
1750240848.112294,1724
1750240848.1123679,2255
1750240848.112441,2234
1750240848.1125138,1820
1750240848.1125865,1446
1750240848.1126597,1291
1750240848.112733,1179
1750240848.1128075,875
1750240848.112881,620
1750240848.1129532,846
1750240848.113028,1562
1750240848.113104,2197
1750240848.1270938,2303
1750240848.139564,1943
1750240848.1396446,1531
1750240848.1399589,1316
1750240848.1400328,1187
1750240848.1401117,893
1750240848.148629,598
1750240848.1487067,752
1750240848.1488197,1454
1750240848.1488924,2182
1750240848.1490436,2407
1750240848.1557252,2107
1750240848.1585753,1663
1750240848.162274,1386
1750240848.1631775,1236
1750240848.1632574,960
1750240848.16333,632
1750240848.163402,695
1750240848.1634738,1332
1750240848.1635458,2104
1750240848.1696858,2432
1750240848.265302,2211
1750240848.2658625,1767
1750240848.2661004,1455
1750240848.2662466,1292
1750240848.2663908,1043
1750240848.2665353,695
1750240848.266679,660
1750240848.266822,1201
1750240848.2669654,1989
1750240848.2671092,2431
1750240848.2672982,2320
1750240848.2674432,1895
1750240848.2709136,1533
1750240848.3119469,1334
1750240848.3149147,1117
1750240848.3149977,789
1750240848.3199122,678
1750240848.3200307,1084
1750240848.3201044,1818
1750240848.3201754,2328
1750240848.320245,2336
1750240848.3203146,1973
1750240848.320385,1582
1750240848.3204548,1318
1750240848.3205247,1090
1750240848.3205953,790
1750240848.320665,684
1750240848.3207352,1074
1750240848.3208053,1837
1750240848.320875,2424
1750240848.3209448,2502
1750240848.3210225,2157
1750240848.321093,1739
1750240848.3211641,1448
1750240848.3212245,1229
1750240848.3212903,922
1750240848.321362,731
1750240848.3214338,998
1750240848.3215046,1714
1750240848.3215742,2374
1750240848.321644,2570
1750240848.3217142,2300
1750240848.3218012,1879
1750240848.3218782,1550
1750240848.321949,1314
1750240848.3220186,1011
1750240848.3220894,770
1750240848.3221593,939
1750240848.3222291,1593
1750240848.3222988,2292
1750240848.322369,2584
1750240848.3224394,2399
1750240848.322511,1996
1750240848.3225813,1638
1750240848.3226516,1375
1750240848.3227215,1070
1750240848.3227925,803
1750240848.3228621,924
1750240848.3229322,1556
1750240848.3230035,2304
1750240848.3230734,2664
1750240848.323143,2518
1750240848.3232129,2105
1750240848.3232827,1730
1750240848.3233533,1474
1750240848.3234227,1195
1750240848.3234928,895
1750240848.323563,914
1750240848.323629,1456
1750240848.3236918,2219
1750240848.323763,2670
1750240848.3708873,2613
1750240848.3954482,2221
1750240848.4102173,1809
1750240848.4163163,1496
1750240848.4408681,1194
1750240848.4409888,883
1750240848.4453213,891
1750240848.4565449,1452
1750240848.4566424,2301
1750240848.4567297,2846
1750240848.4568176,2823
1750240848.4569292,2399
1750240848.4570193,1958
1750240848.4571092,1663
1750240848.4571962,1401
1750240848.4572713,1038
1750240848.4573781,845
1750240848.4574673,1166
1750240848.4575586,1919
1750240848.4576476,2562
1750240848.457752,2718
1750240848.4578433,2418
1750240848.4579315,1989
1750240848.4580233,1647
1750240848.4581127,1370
1750240848.4582176,1035
1750240848.4583066,856
1750240848.4583962,1168
1750240848.458501,1937
1750240848.458591,2629
1750240848.4587002,2825
1750240848.4587903,2543
1750240848.4588804,2117
1750240848.4589698,1790
1750240848.4590738,1542
1750240848.4591649,1208
1750240848.4592547,949
1750240848.4593441,1150
1750240848.459526,1871
1750240848.4595988,2616
1750240848.4596689,2886
1750240848.4597404,2645
1750240848.4598117,2222
1750240848.4598858,1908
1750240848.4604092,1694
1750240848.460488,1378
1750240848.4605634,1045
1750240848.4606447,1109
1750240848.4607186,1736
1750240848.4615538,2510
1750240848.4616358,2872
1750240848.4618084,2698
1750240848.4618812,2273
1750240848.4619532,1933
1750240848.4620247,1722
1750240848.4620962,1449
1750240848.4621675,1116
1750240848.4622397,1116
1750240848.462309,1682
1750240848.4872546,2486
1750240848.5497558,2940
1750240848.5501032,2846
1750240848.5611422,2433
1750240848.5614715,2063
1750240848.56183,1827
1750240848.5621526,1558
1750240848.562473,1188
1750240848.5627944,1079
1750240848.5631154,1533
1750240848.5634341,2332
1750240848.5637538,2876
1750240848.5640748,2874
1750240848.564409,2486
1750240848.5647337,2089
1750240848.565055,1832
1750240848.5672631,1591
1750240848.5705929,1240
1750240848.5710187,1078
1750240848.571233,1450
1750240848.5754123,2244
1750240848.593419,2873
1750240848.5935032,2964
1750240848.5939295,2606
1750240848.5941422,2179
1750240848.594221,1897
1750240848.594301,1684
1750240848.594388,1357
1750240848.5944674,1119
1750240848.5957081,1341
1750240848.595795,2038
1750240848.5958765,2705
1750240848.595957,2912
1750240848.5960436,2649
1750240848.5961242,2235
1750240848.596205,1919
1750240848.5962856,1698
1750240848.5963619,1394
1750240848.5964305,1138
1750240848.5964983,1297
1750240848.5965655,1960
1750240848.5966334,2675
1750240848.596701,2958
1750240848.5967693,2739
1750240848.5968406,2305
1750240848.5969207,1948
1750240848.5970023,1712
1750240848.5970826,1431
1750240848.597163,1163
1750240848.5972242,1272
1750240848.5973017,1907
1750240848.5973809,2675
1750240848.5974603,3043
1750240848.5975401,2869
1750240848.59762,2406
1750240848.5976996,2000
1750240848.5977795,1751
1750240848.5978587,1502
1750240848.597938,1214
1750240848.5980172,1202
1750240848.598096,1690
1750240848.5981748,2422
1750240848.5982597,2893
1750240848.5983298,2891
1750240848.5984097,2559
1750240848.5984998,2191
1750240848.5985794,1902
1750240848.5986588,1595
1750240848.5987396,1234
1750240848.5988204,1151
1750240848.5989006,1614
1750240848.59898,2406
1750240848.5990584,2949
1750240848.5991378,2957
1750240848.599218,2572
1750240848.5992975,2166
1750240848.5993783,1902
1750240848.599454,1670
1750240848.5995226,1336
1750240848.599599,1183
1750240848.5996625,1553
1750240848.5997407,2339
1750240848.599821,2962
1750240848.5999,3052
1750240848.6087408,2698
1750240848.6418595,2267
1750240848.641965,2010
1750240848.6420393,1865
1750240848.6421127,1616
1750240848.642185,1386
1750240848.642258,1540
1750240848.64233,2156
1750240848.642402,2820
1750240848.642474,3093
1750240848.6425467,2824
1750240848.6426182,2204
1750240848.6426895,1591
1750240848.642766,1212
1750240848.6428406,1021
1750240848.642915,1036
1750240848.6429894,1525
1750240848.6430638,2678
1750240848.6431377,4301
1750240848.6432123,5951
1750240848.6432865,7128
1750240848.6433613,7431
1750240848.643436,6821
1750240848.643517,5611
1750240848.6435874,4230
1750240848.6436496,3140
1750240848.6437185,2750
1750240848.6437926,3063
1750240848.6438673,3666
1750240848.6439416,4187
1750240848.6440163,4593
1750240848.6440904,4944
1750240848.6441646,5202
1750240848.6442387,5167
1750240848.6443138,4660
1750240848.6443884,3851
1750240848.6444623,3320
1750240848.644537,3430
1750240848.6446111,3963
1750240848.6446855,4447
1750240848.6447597,4745
1750240848.6448336,4884
1750240848.644908,4880
1750240848.6543126,4633
1750240848.6544256,4098
1750240848.6545298,3444
1750240848.654633,3118
1750240848.6547348,3361
1750240848.654838,3986
1750240848.6549416,4572
1750240848.6550436,4917
1750240848.655164,4891
1750240848.6552665,4484
1750240848.655384,3882
1750240848.6554859,3520
1750240848.6555889,3702
1750240848.655783,4448
1750240848.655886,5377
1750240848.655988,6008
1750240848.6560895,6131
1750240848.6561913,6011
1750240848.6562932,5852
1750240848.6563947,5547
1750240848.6564963,4905
1750240848.6565988,4074
1750240848.6567001,3430
1750240848.6568012,3385
1750240848.6569493,4022
1750240848.6572726,5018
1750240848.6573763,5821
1750240848.6594265,6128
1750240848.6595325,5887
1750240848.6597848,5219
1750240848.6598976,4393
1750240848.6600006,3805
1750240848.660103,3688
1750240848.6602056,3996
1750240848.6603074,4396
1750240848.660412,4442
1750240848.660515,3843
1750240848.660619,2759
1750240848.6607218,1661
1750240848.6608248,865
1750240848.6611402,373
1750240848.661367,76
1750240848.6614704,-62
1750240848.6615732,113
1750240848.661675,794
1750240848.661786,1833
1750240848.6618888,2679
1750240848.6619902,2849
1750240848.6632066,2348
1750240848.6633136,1520
1750240848.6682477,765
1750240848.6683605,282
1750240848.6684828,65
1750240848.6685874,102
1750240848.6686904,553
1750240848.6687937,1399
1750240848.6688967,2223
1750240848.6690004,2487
1750240848.6691163,2094
1750240848.6694071,1380
1750240848.6695104,809
1750240848.729526,553
1750240848.784131,471
1750240848.7973409,386
1750240848.7985032,472
1750240848.8632028,920
1750240848.888768,1562
1750240848.8910494,1936
1750240848.9210474,1839
1750240848.9573376,1415
1750240848.9574432,1000
1750240848.9664342,752
1750240848.9665494,593
1750240848.9666662,375
1750240848.967511,291
1750240848.9676335,610
1750240848.967741,1265
1750240848.967846,1787
1750240848.973527,1869
1750240848.9821215,1560
1750240848.9822538,1162
1750240848.98236,871
1750240848.9824631,661
1750240848.982566,387
1750240848.982671,213
1750240848.9827752,458
1750240848.9828782,1129
1750240848.9829805,1759
1750240848.983084,1948
1750240848.9831874,1687
1750240848.9832907,1278
1750240848.983394,966
1750240848.9834967,753
1750240848.9835994,469
1750240848.9838037,221
1750240848.9838712,370
1750240848.9839375,1013
1750240848.9840024,1721
1750240848.9840677,2016
1750240848.9841335,1816
1750240848.9841986,1400
1750240848.9842637,1063
1750240848.9843307,847
1750240848.9843962,568
1750240848.9844644,259
1750240848.9845302,285
1750240848.9845977,834
1750240848.9846628,1564
1750240848.9847288,1951
1750240848.984795,1836
1750240848.9848607,1438
1750240848.984926,1080
1750240848.984992,847
1750240848.9850576,593
1750240848.9854794,300
1750240849.052712,326
1750240849.053427,903
1750240849.0534956,1725
1750240849.053561,2201
1750240849.0536265,2109
1750240849.0536916,1669
1750240849.053754,1271
1750240849.0538185,1039
1750240849.053883,807
1750240849.0539482,457
1750240849.0540683,311
1750240849.0541332,702
1750240849.0541983,1478
1750240849.0542655,2064
1750240849.0543308,2131
1750240849.054395,1776
1750240849.0544596,1366
1750240849.0545268,1090
1750240849.0545907,866
1750240849.0546558,548
1750240849.0547194,371
1750240849.054784,659
1750240849.0548484,1358
1750240849.0549176,1961
1750240849.054987,2110
1750240849.0550559,1833
1750240849.0551314,1435
1750240849.055201,1124
1750240849.0552697,883
1750240849.0553381,586
1750240849.0554066,425
1750240849.0554762,729
1750240849.0555453,1479
1750240849.0683799,2163
1750240849.068462,2361
1750240849.0685284,2081
1750240849.0685947,1654
1750240849.0686598,1333
1750240849.0687263,1105
1750240849.0687914,791
1750240849.0688572,517
1750240849.0689216,669
1750240849.0689876,1352
1750240849.0690532,2111
1750240849.0691156,2435
1750240849.0691743,2233
1750240849.0692384,1800
1750240849.0693035,1455
1750240849.0693688,1241
1750240849.0694342,965
1750240849.0695,649
1750240849.0695648,664
1750240849.0696304,1215
1750240849.0696957,1966
1750240849.0697615,2388
1750240849.0698266,2299
1750240849.069892,1903
1750240849.0699565,1525
1750240849.0700219,1267
1750240849.0700872,994
1750240849.0701532,688
1750240849.0702238,693
1750240849.0702894,1240
1750240849.0703547,2041
1750240849.0704198,2527
1750240849.0704846,2470
1750240849.0705497,2065
1750240849.0706146,1672
1750240849.07068,1419
1750240849.0707445,1168
1750240849.0708096,825
1750240849.0708745,713
1750240849.0709393,1139
1750240849.071004,1930
1750240849.0710688,2507
1750240849.0711339,2551
1750240849.0711987,2181
1750240849.0712636,1769
1750240849.0713284,1496
1750240849.0713933,1268
1750240849.0714583,940
1750240849.0715227,757
1750240849.0715818,1057
1750240849.0827117,1785
1750240849.0862768,2412
1750240849.088142,2563
1750240849.125058,2269
1750240849.1274395,1858
1750240849.1282988,1544
1750240849.1283784,1303
1750240849.1284752,985
1750240849.1285512,779
1750240849.1286266,1038
1750240849.1288035,1773
1750240849.1288893,2473
1750240849.1289642,2693
1750240849.1290383,2416
1750240849.1291125,1972
1750240849.1294034,1638
1750240849.1294773,1420
1750240849.1295524,1129
1750240849.1296535,861
1750240849.129729,986
1750240849.1298034,1629
1750240849.1298776,2368
1750240849.129952,2699
1750240849.1359692,2516
1750240849.1360557,2083
1750240849.1361291,1709
1750240849.136204,1460
1750240849.1362777,1175
1750240849.1735368,880
1750240849.1736882,929
1750240849.173808,1503
1750240849.1739266,2261
1750240849.1741047,2678
1750240849.1742268,2583
1750240849.1743455,2179
1750240849.17447,1790
1750240849.1745887,1525
1750240849.1885908,1258
1750240849.195827,956
1750240849.1959114,937
1750240849.1959908,1429
1750240849.1960695,2181
1750240849.1961513,2664
1750240849.1962285,2647
1750240849.1963058,2272
1750240849.196381,1870
1750240849.1964576,1587
1750240849.1965349,1332
1750240849.196611,1022
1750240849.1966875,944
1750240849.1967638,1372
1750240849.1968405,2140
1750240849.196917,2703
1750240849.196993,2756
1750240849.19707,2399
1750240849.1971464,1981
1750240849.1972227,1680
1750240849.2093267,1425
1750240849.2109573,1090
1750240849.21221,930
1750240849.2123742,1287
1750240849.212635,2083
1750240849.2127414,2752
1750240849.2128682,2893
1750240849.2129781,2552
1750240849.2130826,2105
1750240849.2133014,1797
1750240849.2190607,1575
1750240849.2191944,1243
1750240849.2193015,981
1750240849.2194066,1176
1750240849.2195137,1884
1750240849.219636,2601
1750240849.2198813,2852
1750240849.220196,2595
1750240849.2206075,2157
1750240849.2207148,1817
1750240849.2208204,1579
1750240849.2209246,1259
1750240849.2210286,977
1750240849.221132,1135
1750240849.2217863,1846
1750240849.2218983,2639
1750240849.2220047,2969
1750240849.2221086,2742
1750240849.2229538,2275
1750240849.223785,1912
1750240849.2241635,1692
1750240849.2255487,1405
1750240849.2256615,1069
1750240849.2260075,1080
1750240849.2273753,1661
1750240849.2274804,2456
1750240849.2275925,2891
1750240849.2277937,2776
1750240849.2278962,2349
1750240849.2279994,1967
1750240849.2281022,1725
1750240849.228204,1454
1750240849.2283068,1117
1750240849.228409,1080
1750240849.2285225,1610
1750240849.2286246,2434
1750240849.228726,2955
1750240849.228828,2915
1750240849.2291214,2499
1750240849.2293386,2094
1750240849.2294421,1848
1750240849.2295592,1620
1750240849.2296617,1284
1750240849.229764,1139
1750240849.2298667,1503
1750240849.2299695,2244
1750240849.2300723,2813
1750240849.2301755,2884
1750240849.2302775,2543
1750240849.23038,2138
1750240849.2304826,1853
1750240849.2305853,1617
1750240849.230688,1301
1750240849.2307904,1161
1750240849.2308927,1527
1750240849.230995,2316
1750240849.2310984,2964
1750240849.2312005,3080
1750240849.2313027,2727
1750240849.2314053,2282
1750240849.2315187,1979
1750240849.2317717,1756
1750240849.2356553,1428
1750240849.2466495,1186
1750240849.2764056,1422
1750240849.2767706,2168
1750240849.2771912,2896
1750240849.2775233,3127
1750240849.277854,2841
1750240849.2788525,2391
1750240849.3082385,2064
1750240849.3083208,1847
1750240849.3083944,1536
1750240849.3084793,1233
1750240849.308551,1336
1750240849.3086224,1982
1750240849.3086946,2740
1750240849.3087656,3087
1750240849.3088372,2908
1750240849.3089087,2471
1750240849.308981,2096
1750240849.3090522,1855
1750240849.3091233,1584
1750240849.3091865,1291
1750240849.3092535,1312
1750240849.3093245,1835
1750240849.3093958,2554
1750240849.3094668,2967
1750240849.3095386,2894
1750240849.3096097,2502
1750240849.3096807,2097
1750240849.3097515,1806
1750240849.3098228,1535
1750240849.311856,1259
1750240849.3119361,1277
1750240849.312014,1793
1750240849.312092,2547
1750240849.3121774,3014
1750240849.312255,2975
1750240849.3123336,2586
1750240849.3124096,2176
1750240849.312488,1883
1750240849.3125663,1615
1750240849.312645,1298
1750240849.3127227,1231
1750240849.34782,1692
1750240849.3479064,2501
1750240849.347983,3089
1750240849.3480585,3144
1750240849.3481333,2770
1750240849.3482077,2329
1750240849.3482826,2015
1750240849.3483605,1764
1750240849.348449,1429
1750240849.3485243,1230
1750240849.3485982,1487
1750240849.3486722,2171
1750240849.348746,2799
1750240849.3488202,3000
1750240849.3488944,2751
1750240849.3489687,2320
1750240849.3490424,1934
1750240849.3491182,1640
1750240849.3492005,1338
1750240849.3492692,1177
1750240849.349333,1433
1750240849.3493962,2107
1750240849.3494685,2762
1750240849.349548,3012
1750240849.3496213,2801
1750240849.3496947,2359
1750240849.3497689,1932
1750240849.3498428,1613
1750240849.3499162,1315
1750240849.3499897,1130
1750240849.3805768,1336
1750240849.3806732,1986
1750240849.3807561,2694
1750240849.3808374,3026
1750240849.3809187,2880
1750240849.4016237,2452
1750240849.4027207,2012
1750240849.4073968,1676
1750240849.4080114,1364
1750240849.4080894,1117
1750240849.4081633,1226
1750240849.408237,1814
1750240849.408311,2561
1750240849.4083831,2997
1750240849.408472,2964
1750240849.4085543,2616
1750240849.4087343,2222
1750240849.4195719,1895
1750240849.419651,1563
1750240849.419725,1244
1750240849.4197984,1266
1750240849.4198706,1828
1750240849.4199429,2645
1750240849.4211392,3158
1750240849.4224696,3136
1750240849.428735,2736
1750240849.42882,2308
1750240849.4288933,2004
1750240849.428967,1727
1750240849.4290397,1389
1750240849.4291124,1277
1750240849.4291856,1679
1750240849.4292583,2443
1750240849.4350705,3020
1750240849.4602957,3094
1750240849.5087302,2749
1750240849.5088725,2327
1750240849.5091784,2014
1750240849.509279,1752
1750240849.5095072,1416
1750240849.5096052,1246
1750240849.5096946,1568
1750240849.5097833,2319
1750240849.509895,2960
1750240849.5099845,3107
1750240849.510074,2795
1750240849.5101624,2358
1750240849.5102735,2027
1750240849.5103827,1781
1750240849.5104709,1463
1750240849.5105596,1256
1750240849.5106473,1515
1750240849.5165253,2255
1750240849.5168624,2963
1750240849.5171907,3184
1750240849.5175176,2912
1750240849.5178444,2481
1750240849.5181706,2158
1750240849.518523,1928
1750240849.5190115,1601
1750240849.5193403,1293
1750240849.5196676,1404
1750240849.5199943,2065
1750240849.5203223,2828
1750240849.5206492,3163
1750240849.52098,2965
1750240849.565564,2521
1750240849.582822,2157
1750240849.6094334,1935
1750240849.7047625,1673
1750240849.7161398,1365
1750240849.7164884,1354
1750240849.7168298,1846
1750240849.7171605,2549
1750240849.7255995,2962
1750240849.7257154,2897
1750240849.7258463,2511
1750240849.7337465,2105
1750240849.7338252,1814
1750240849.733898,1557
1750240849.7349055,1299
1750240849.7525737,1309
1750240849.7526648,1781
1750240849.752738,2488
1750240849.7528126,2944
1750240849.7528856,2936
1750240849.7529576,2578
1750240849.7530296,2165
1750240849.7531018,1854
1750240849.7532861,1599
1750240849.7915518,1324
1750240849.8578947,1267
1750240849.904317,1658
1750240849.915825,2359
1750240849.9159033,2888
1750240849.915979,2968
1750240849.916053,2655
1750240849.9161441,2238
1750240849.9162169,1900
1750240849.9162886,1635
1750240849.91636,1345
1750240849.9164312,1224
1750240849.9165022,1534
1750240849.9165735,2217
1750240849.9166448,2810
1750240849.9167168,2983
1750240849.9167879,2731
1750240849.9168591,2314
1750240849.9169302,1944
1750240849.9170015,1660
1750240849.9170725,1364
1750240849.9171436,1198
1750240849.9172142,1442
1750240849.9172854,2103
1750240849.9173565,2752
1750240849.9174275,3002
1750240849.9174986,2799
1750240849.9175696,2380
1750240849.917641,1990
1750240849.917712,1699
1750240849.9494038,1401
1750240849.9502413,1184
1750240849.950473,1348
1750240849.9566772,1975
1750240849.956767,2678
1750240849.956841,3008
1750240849.9569132,2865
1750240849.957693,2467
1750240849.9577653,2083
1750240849.9578373,1785
1750240849.9579084,1457
1750240849.95798,1160
1750240849.9586391,1255
1750240849.9759574,1898
1750240849.9918153,2709
1750240850.0359297,3125
1750240850.036367,2988
1750240850.0488183,2553
1750240850.0504487,2182
1750240850.0506356,1955
1750240850.0507662,1680
1750240850.0508966,1299
1750240850.052205,1182
1750240850.0523336,1634
1750240850.0524554,2421
1750240850.052581,2951
1750240850.0527034,2940
1750240850.0551875,2545
1750240850.0553055,2140
1750240850.0554144,1876
1750240850.055538,1629
1750240850.0557196,1289
1750240850.0558286,1165
1750240850.0559368,1578
1750240850.0560448,2376
1750240850.0561526,2971
1750240850.056261,3017
1750240850.0564253,2624
1750240850.0565348,2181
1750240850.0566423,1895
1750240850.0567636,1679
1750240850.056874,1359
1750240850.0569813,1154
1750240850.0570886,1421
1750240850.0573094,2141
1750240850.057419,2791
1750240850.0575356,2960
1750240850.057643,2655
1750240850.0577629,2209
1750240850.0578706,1877
1750240850.0579782,1653
1750240850.0580852,1364
1750240850.0582035,1150
1750240850.0583107,1363
1750240850.058418,2052
1750240850.05875,2749
1750240850.0588613,3001
1750240850.0589702,2752
1750240850.0590918,2286
1750240850.0591996,1887
1750240850.0593078,1600
1750240850.0594163,1281
1750240850.0595465,1030
1750240850.0597584,1207
1750240850.0598671,1916
1750240850.0599918,2711
1750240850.0601006,3056
1750240850.0602517,2831
1750240850.0603564,2311
1750240850.0604606,1844
1750240850.0605643,1533
1750240850.0606804,1232
1750240850.0607848,947
1750240850.0608904,1016
1750240850.0609968,1622
1750240850.0611124,2429
1750240850.0613403,2900
1750240850.061461,2849
1750240850.0615757,2463
1750240850.0616794,2056
1750240850.0617974,1735
1750240850.0622618,1397
1750240850.130001,1031
1750240850.1302886,980
1750240850.130479,1484
1750240850.1322508,2285
1750240850.1323607,2825
1750240850.132464,2845
1750240850.132565,2475
1750240850.1336308,2043
1750240850.1337397,1715
1750240850.1342,1433
1750240850.1343288,1117
1750240850.1344354,1014
1750240850.1345396,1368
1750240850.134999,2049
1750240850.1351373,2577
1750240850.135243,2672
1750240850.1360292,2382
1750240850.1361597,1974
1750240850.1362653,1629
1750240850.1427672,1357
1750240850.1430004,1083
1750240850.1430745,1000
1750240850.1445608,1345
1750240850.1446402,2039
1750240850.1447122,2618
1750240850.1447842,2762
1750240850.144856,2492
1750240850.1449273,2074
1750240850.1449993,1718
1750240850.14507,1452
1750240850.145248,1166
1750240850.145329,997
1750240850.1454012,1226
1750240850.1454723,1870
1750240850.1455476,2507
1750240850.1456182,2749
1750240850.14569,2548
1750240850.145761,2142
1750240850.1458325,1772
1750240850.145904,1497
1750240850.1459851,1208
1750240850.1460562,993
1750240850.1461277,1161
1750240850.1461985,1793
1750240850.1462693,2500
1750240850.1463857,2829
1750240850.1464574,2677
1750240850.1465278,2264
1750240850.1465988,1869
1750240850.1466732,1577
1750240850.1467435,1277
1750240850.1468139,1000
1750240850.1468847,1069
1750240850.1469548,1644
1750240850.147025,2401
1750240850.1470952,2831
1750240850.1471655,2758
1750240850.1472359,2362
1750240850.1473064,1952
1750240850.147377,1650
1750240850.1474466,1359
1750240850.1475117,1050
1750240850.1475706,1030
1750240850.1477432,1518
1750240850.1478102,2279
1750240850.147877,2788
1750240850.1479454,2799
1750240850.1480138,2433
1750240850.1480858,2010
1750240850.1486692,1691
1750240850.1500235,1421
1750240850.1500945,1116
1750240850.1501606,1023
1750240850.1502264,1393
1750240850.1502917,2099
1750240850.1503587,2650
1750240850.1504295,2754
1750240850.1504998,2453
1750240850.1505702,2026
1750240850.1506398,1666
1750240850.15071,1387
1750240850.15078,1103
1750240850.1508505,998
1750240850.1509204,1320
1750240850.1509905,2003
1750240850.151061,2591
1750240850.1511314,2763
1750240850.1512012,2517
1750240850.1512713,2105
1750240850.1513417,1734
1750240850.151412,1455
1750240850.1514816,1172
1750240850.1515517,1020
1750240850.1536899,1265
1750240850.1537752,1914
1750240850.1544204,2552
1750240850.1545672,2806
1750240850.154638,2617
1750240850.1566832,2207
1750240850.2132385,1811
1750240850.213352,1515
1750240850.2135174,1227
1750240850.2136223,1025
1750240850.2137249,1182
1750240850.2138276,1777
1750240850.2139425,2454
1750240850.2140455,2794
1750240850.2141483,2683
1750240850.2142506,2296
1750240850.2143824,1888
1750240850.2144864,1571
1750240850.2145882,1277
1750240850.2146902,1040
1750240850.2147992,1143
1750240850.2149003,1711
1750240850.2149785,2434
1750240850.2150526,2842
1750240850.2151358,2775
1750240850.21521,2393
1750240850.215284,1981
1750240850.2153585,1666
1750240850.2154317,1375
1750240850.2155051,1084
1750240850.2157576,1078
1750240850.215831,1559
1750240850.2159045,2299
1750240850.2159777,2800
1750240850.2160518,2824
1750240850.216126,2476
1750240850.2161996,2055
1750240850.2162735,1723
1750240850.2163472,1441
1750240850.216421,1138
1750240850.2164943,1057
1750240850.2165678,1440
1750240850.2166412,2154
1750240850.2167149,2714
1750240850.21679,2827
1750240850.2168634,2531
1750240850.216937,2102
1750240850.2170103,1737
1750240850.2170837,1454
1750240850.2171526,1169
1750240850.2172127,1072
1750240850.2172863,1408
1750240850.2173598,2110
1750240850.217433,2716
1750240850.2175066,2896
1750240850.2175808,2647
1750240850.2176542,2227
1750240850.217728,1843
1750240850.2178016,1541
1750240850.217875,1229
1750240850.2179484,1059
1750240850.2180219,1313
1750240850.218095,1992
1750240850.2181685,2654
1750240850.2182415,2905
1750240850.2183151,2699
1750240850.2183886,2284
1750240850.2184763,1901
1750240850.2185528,1606
1750240850.218629,1286
1750240850.218703,1047
1750240850.2187827,1212
1750240850.218859,1867
1750240850.2189312,2601
1750240850.2190006,2941
1750240850.21907,2787
1750240850.2463114,2377
1750240850.2465532,1995
1750240850.2482967,1710
1750240850.2487144,1393
1750240850.2489135,1097
1750240850.251297,1180
1750240850.251405,1808
1750240850.251508,2615
1750240850.251705,3047
1750240850.2518241,2934
1750240850.2519274,2504
1750240850.2520306,2101
1750240850.2521684,1825
1750240850.2522717,1532
1750240850.2523732,1184
1750240850.2524755,1126
1750240850.2525775,1614
1750240850.2526793,2396
1750240850.2527816,2907
1750240850.2528837,2894
1750240850.2529862,2512
1750240850.2530892,2104
1750240850.2532983,1806
1750240850.2535384,1519
1750240850.253642,1172
1750240850.2537446,1082
1750240850.2538466,1541
1750240850.2539494,2360
1750240850.2540514,2948
1750240850.2541645,2987
1750240850.254266,2610
1750240850.254368,2190
1750240850.2544694,1897
1750240850.2545714,1637
1750240850.2546754,1274
1750240850.2547781,1082
1750240850.254883,1420
1750240850.254988,2219
1750240850.2561827,2898
1750240850.2562928,3045
1750240850.2563968,2714
1750240850.2565002,2273
1750240850.2566035,1955
1750240850.2567065,1719
1750240850.2568138,1386
1750240850.2569168,1119
1750240850.2570202,1282
1750240850.2574055,1929
1750240850.2586107,2600
1750240850.2587192,2858
1750240850.258824,2649
1750240850.2589269,2237
1750240850.2590303,1871
1750240850.2591348,1604
1750240850.2601776,1313
1750240850.2606027,1091
1750240850.2607086,1252
1750240850.2608137,1874
1750240850.2609189,2565
1750240850.2955408,2874
1750240850.3015604,2712
1750240850.304421,2300
1750240850.3057206,1908
1750240850.3058457,1625
1750240850.3059523,1346
1750240850.3060575,1094
1750240850.309489,1171
1750240850.3231177,1722
1750240850.323201,2440
1750240850.3232787,2847
1750240850.3233557,2777
1750240850.323432,2393
1750240850.3235083,1986
1750240850.3235846,1685
1750240850.3236456,1416
1750240850.3237221,1143
1750240850.3237991,1134
1750240850.3244288,1586
1750240850.328463,2289
1750240850.3290365,2764
1750240850.32912,2790
1750240850.3291914,2455
1750240850.329251,2040
1750240850.329328,1701
1750240850.329694,1416
1750240850.360451,1130
1750240850.4039507,1082
1750240850.4060457,1491
1750240850.4087079,2208
1750240850.4087908,2749
1750240850.4088712,2843
1750240850.4089847,2546
1750240850.4091778,2130
1750240850.4092567,1773
1750240850.4093356,1477
1750240850.4094148,1171
1750240850.4094985,1069
1750240850.409576,1426
1750240850.4096525,2152
1750240850.4097307,2753
1750240850.4098098,2907
1750240850.4099185,2646
1750240850.4103477,2241
1750240850.412697,1924
1750240850.4556284,1657
1750240850.4556997,1583
1750240850.497942,1362
1750240850.4980457,1100
1750240850.4981203,1118
1750240850.4981937,1698
1750240850.4985745,2637
1750240850.5053327,3083
1750240850.5054114,2457
1750240850.5054846,1466
1750240850.505558,1383
1750240850.5060682,2175
1750240850.5061476,2419
1750240850.5062215,1565
1750240850.5062954,1486
1750240850.5063689,4414
1750240850.506443,9076
1750240850.5065165,10153
1750240850.5065897,3269
1750240850.506663,-9242
1750240850.5067372,-19157
1750240850.5068119,-19726
1750240850.5068846,-11576
1750240850.5069575,-1009
1750240850.5070307,6542
1750240850.5071037,10554
1750240850.5071762,13492
1750240850.5072494,16465
1750240850.5073223,17710
1750240850.5073946,15118
1750240850.5074673,8853
1750240850.5075393,1319
1750240850.507605,-4564
1750240850.507666,-6690
1750240850.5077386,-4441
1750240850.5078204,1190
1750240850.507887,7870
1750240850.5079541,13206
1750240850.5080214,15053
1750240850.5080884,13155
1750240850.5081553,8466
1750240850.508222,2896
1750240850.508287,-1314
1750240850.5083535,-2385
1750240850.5084255,-69
1750240850.5085077,4154
1750240850.5085797,8020
1750240850.5086513,10037
1750240850.508723,9888
1750240850.5087943,8129
1750240850.508866,5612
1750240850.5089383,3209
1750240850.5090096,1645
1750240850.5090811,1498
1750240850.5091522,2805
1750240850.509224,4846
1750240850.509295,6499
1750240850.5093663,7133
1750240850.509438,6788
1750240850.5095093,5857
1750240850.5095809,4744
1750240850.5096524,3755
1750240850.509724,3085
1750240850.5097995,2979
1750240850.5098708,3576
1750240850.5099423,4614
1750240850.5100133,5489
1750240850.510085,5822
1750240850.5101564,5643
1750240850.510229,5151
1750240850.5103006,4541
1750240850.5103722,3944
1750240850.5104434,3435
1750240850.510515,3189
1750240850.5105858,3442
1750240850.510657,4148
1750240850.5107315,4891
1750240850.5108032,5279
1750240850.510875,5243
1750240850.5109463,4877
1750240850.511018,4353
1750240850.5110898,3811
1750240850.511161,3337
1750240850.5112326,3043
1750240850.511304,3167
1750240850.5113754,3751
1750240850.5114467,4482
1750240850.5115185,4945
1750240850.5115874,4993
1750240850.5116465,4660
1750240850.5117188,4131
1750240850.5124066,3587
1750240850.513345,3144
1750240850.5134208,2854
1750240850.5134938,2916
1750240850.5135655,3410
1750240850.513637,4113
1750240850.5137177,4614
1750240850.5137894,4723
1750240850.5138614,4433
1750240850.5139327,3922
1750240850.5140038,3376
1750240850.5140758,2929
1750240850.514147,2615
1750240850.514219,2621
1750240850.5142903,3074
1750240850.5143623,3812
1750240850.5144339,4394
1750240850.5145051,4565
1750240850.5145767,4298
1750240850.5146475,3787
1750240850.514719,3241
1750240850.5147917,2802
1750240850.5148656,2473
1750240850.514937,2398
1750240850.5150087,2754
1750240850.5150807,3462
1750240850.53936,4099
1750240850.5395281,4347
1750240850.5397575,4139
1750240850.5694802,3648
1750240850.5695696,3100
1750240850.569646,2655
1750240850.5721176,2309
1750240850.572205,2174
1750240850.5722873,2457
1750240850.5723906,3145
1750240850.5724776,3837
1750240850.5725596,4153
1750240850.5726426,3988
1750240850.5727253,3512
1750240850.5728498,2960
1750240850.5729315,2476
1750240850.573013,2054
1750240850.573094,1792
1750240850.5731654,1968
1750240850.573246,2630
1750240850.573327,3365
1750240850.573408,3732
1750240850.573489,3674
1750240850.5735693,3336
1750240850.5736504,2857
1750240850.5737312,2309
1750240850.5738115,1807
1750240850.5738916,1617
1750240850.5739727,1984
1750240850.574053,2600
1750240850.5741332,2700
1750240850.5742142,1808
1750240850.5742946,279
1750240850.5743752,-1251
1750240850.5744562,-2396
1750240850.574537,-3055
1750240850.5746179,-3119
1750240850.5746953,-2459
1750240850.5747666,-1135
1750240850.574844,284
1750240850.574924,1129
1750240850.5750046,1260
1750240850.5750852,1140
1750240850.575177,919
1750240850.5909996,213
1750240850.5910764,-1184
1750240850.5911472,-2615
1750240850.5912204,-3075
1750240850.591293,-2147
1750240850.591365,-560
1750240850.5914347,558
1750240850.6013048,772
1750240850.6240346,606
1750240850.6829512,451
1750240850.6894407,34
1750240850.6897454,-996
1750240850.6899066,-2230
1750240850.690014,-2795
1750240850.6901245,-2185
1750240850.7061524,-926
1750240850.7079515,-12
1750240850.742816,73
1750240850.7603683,-212
1750240850.771251,-320
1750240850.77133,-392
1750240850.7714012,-901
1750240850.8496702,-1781
1750240850.8579085,-2389
1750240850.8631668,-2127
1750240850.8633347,-1187
1750240850.8674757,-378
1750240850.8677843,-239
1750240850.8679647,-455
1750240850.8681288,-465
1750240850.8683035,-342
1750240850.8700802,-613
1750240850.885409,-1384
1750240850.8854926,-2087
1750240850.8855622,-2036
1750240850.885629,-1228
1750240850.8856955,-405
1750240850.885762,-196
1750240850.8858302,-404
1750240850.8858962,-406
1750240850.885962,-178
1750240850.8860288,-291
1750240850.886097,-1032
1750240850.8861632,-1911
1750240850.886229,-2131
1750240850.8862946,-1438
1750240850.8863604,-481
1750240850.886427,-32
1750240850.8864949,-145
1750240850.8865619,-227
1750240850.8866289,-80
1750240850.8866947,-141
1750240850.8867612,-776
1750240850.8868263,-1635
1750240850.886893,-1979
1750240850.8869596,-1431
1750240850.887027,-507
1750240850.887094,11
1750240850.88716,-74
1750240850.8872263,-210
1750240850.887292,-84
1750240850.8873706,-47
1750240850.887436,-544
1750240850.8875017,-1360
1750240850.8875608,-1820
1750240850.8876243,-1450
1750240850.8876896,-607
1750240850.8877583,-28
1750240850.8878243,-24
1750240850.8878896,-150
1750240850.8879557,-58
1750240850.8880234,-25
1750240850.8880897,-498
1750240850.8881557,-1314
1750240850.8882215,-1833
1750240850.8882873,-1535
1750240850.8883524,-678
1750240850.8884182,2
1750240850.8885,88
1750240850.8885655,-57
1750240850.8886318,6
1750240850.8886979,116
1750240850.888764,-194
1750240850.8888295,-916
1750240850.8888967,-1514
1750240850.8889632,-1416
1750240850.8890285,-678
1750240850.889089,65
1750240850.88915,294
1750240850.8892155,186
1750240850.889282,174
1750240850.889357,226
1750240850.8894224,-51
1750240850.8894882,-732
1750240850.8895543,-1382
1750240850.8896208,-1436
1750240850.8896866,-794
1750240850.8897529,11
1750240850.8898187,397
1750240850.889884,364
1750240850.8899498,329
1750240850.8900168,380
1750240850.8900836,218
1750240850.8901498,-328
1750240850.8913255,-964
1750240850.9248111,-1169
1750240850.92782,-690
1750240850.927957,91
1750240850.9280581,586
1750240850.9281585,617
1750240850.928258,539
1750240850.9283578,539
1750240850.9284792,412
1750240850.9285796,-74
1750240850.9286845,-736
1750240850.9287844,-1079
1750240850.9288852,-707
1750240850.928985,137
1750240850.9290855,822
1750240850.9291754,970
1750240850.9292705,849
1750240850.929371,760
1750240850.929471,633
1750240850.9295702,209
1750240850.9296744,-438
1750240850.9297748,-896
1750240850.9298747,-700
1750240850.9299743,53
1750240850.9300742,785
1750240850.930174,1022
1750240850.9302742,939
1750240850.9303734,868
1750240850.9304748,796
1750240850.9305758,449
1750240850.9306784,-177
1750240850.9307775,-714
1750240850.9308772,-658
1750240850.9309766,14
1750240850.9310763,783
1750240850.931176,1096
1750240850.9312758,1023
1750240850.931375,925
1750240850.9314759,859
1750240850.931575,570
1750240850.9316611,-5
1750240850.9325368,-563
1750240850.9326582,-601
1750240850.9327583,19
1750240850.9328587,845
1750240850.932958,1280
1750240850.9330578,1272
1750240850.9331546,1179
1750240850.9332397,1116
1750240850.9333396,857
1750240850.933439,283
1750240850.9335382,-347
1750240850.9432938,-522
1750240850.9433718,3
1750240850.9434452,847
1750240850.9435165,1376
1750240850.943589,1404
1750240850.9436486,1266
1750240850.9437149,1155
1750240850.943787,922
1750240850.9440997,423
1750240850.9441748,-150
1750240850.9442468,-356
1750240850.9443185,96
1750240850.9444523,908
1750240850.9445264,1493
1750240850.9445982,1596
1750240850.9446862,1516
1750240850.9447577,1454
1750240850.9448302,1258
1750240850.944902,722
1750240850.9449735,11
1750240850.945045,-405
1750240850.9451241,-107
1750240850.9451969,707
1750240850.9452696,1422
1750240850.9453409,1614
1750240850.9454126,1503
1750240850.9454846,1396
1750240850.9455564,1261
1750240850.945628,864
1750240850.9456992,238
1750240850.9583168,-258
1750240850.9704955,-150
1750240850.9707782,549
1750240850.970996,1334
1750240850.9712276,1682
1750240850.9713671,1648
1750240850.9714994,1513
1750240850.9717133,1350
1750240850.9718602,1001
1750240850.9720137,465
1750240850.9721518,-13
1750240850.972285,-16
1750240850.972417,548
1750240850.972561,1290
1750240850.9726932,1683
1750240850.9731495,1675
1750240850.9735308,1535
1750240850.9736059,1398
1750240850.979058,1138
1750240850.97992,680
1750240850.9801142,179
1750240850.9802303,55
1750240851.021001,563
1750240851.0254457,1406
1750240851.0348868,1953
1750240851.0353036,1942
1750240851.035411,1649
1750240851.03803,1390
1750240851.0385082,1191
1750240851.0386155,901
1750240851.0387182,485
1750240851.0408235,247
1750240851.0430446,565
1750240851.043895,1345
1750240851.0441077,2040
1750240851.0442169,2255
1750240851.044322,2116
1750240851.0444257,1845
1750240851.04454,1477
1750240851.0446444,953
1750240851.0447576,372
1750240851.0448616,65
1750240851.0449643,369
1750240851.0450685,1118
1750240851.045189,1775
1750240851.0452929,1983
1750240851.0453978,1913
1750240851.0455048,1779
1750240851.0456088,1549
1750240851.0560384,1084
1750240851.0576117,497
1750240851.0578458,139
1750240851.057969,389
1750240851.0580726,1129
1750240851.1052642,1833
1750240851.105556,2061
1750240851.1063507,1950
1750240851.1066327,1790
1750240851.1289887,1666
1750240851.1521633,1421
1750240851.1522613,1004
1750240851.1523404,599
1750240851.1524184,627
1750240851.152495,1203
1750240851.1525717,1955
1750240851.1526487,2313
1750240851.1527255,2205
1750240851.1528025,1926
1750240851.1528869,1709
1750240851.167739,1476
1750240851.1679661,1095
1750240851.1680796,639
1750240851.1726267,552
1750240851.1727026,1121
1750240851.1727672,2049
1750240851.172833,2634
1750240851.172901,2591
1750240851.1729655,2202
1750240851.173031,1838
1750240851.1730917,1554
1750240851.1731513,1218
1750240851.1732154,824
1750240851.1732824,720
1750240851.173486,1211
1750240851.1735559,2060
1750240851.1736217,2612
1750240851.173689,2584
1750240851.1737545,2275
1750240851.1738212,2042
1750240851.1738863,1880
1750240851.173951,1559
1750240851.1740165,1029
1750240851.174082,689
1750240851.1741474,1023
1750240851.174212,1919
1750240851.174277,2686
1750240851.174342,2819
1750240851.1744075,2503
1750240851.1744745,2151
1750240851.1745396,1921
1750240851.1746035,1648
1750240851.1746655,1222
1750240851.1747308,894
1750240851.174796,1120
1750240851.174864,1891
1750240851.1749296,2661
1750240851.174994,2923
1750240851.1750588,2750
1750240851.175194,2428
1750240851.175264,2077
1750240851.1753294,1616
1750240851.1754014,1076
1750240851.1754663,716
1750240851.1755283,895
1750240851.1755877,1552
1750240851.175651,2225
1750240851.1829085,2524
1750240851.18436,2565
1750240851.1870272,2524
1750240851.187145,2345
1750240851.187225,1867
1750240851.1873047,1215
1750240851.1873803,771
1750240851.187455,957
1750240851.1875288,1690
1750240851.1875937,2436
1750240851.1876585,2699
1750240851.1877322,2580
1750240851.1878061,2398
1750240851.1878812,2248
1750240851.1879551,1958
1750240851.1880295,1477
1750240851.1881034,1008
1750240851.1881769,982
1750240851.1882532,1555
1750240851.1883278,2378
1750240851.1883862,2875
1750240851.1884634,2905
1750240851.2066078,2705
1750240851.2066846,2466
1750240851.2067533,2144
1750240851.20682,1671
1750240851.2068858,1147
1750240851.2069516,952
1750240851.207018,1375
1750240851.207084,2209
1750240851.20715,2873
1750240851.207216,3062
1750240851.207282,2926
1750240851.2073493,2665
1750240851.2074168,2311
1750240851.2074916,1842
1750240851.2075663,1357
1750240851.2076304,1149
1750240851.2077034,1490
1750240851.2077765,2193
1750240851.2078502,2715
1750240851.2079277,2756
1750240851.2080014,2535
1750240851.2080746,2303
1750240851.2081478,2034
1750240851.2082212,1606
1750240851.2082946,1099
1750240851.208368,851
1750240851.208456,1198
1750240851.2085335,1982
1750240851.2086096,2685
1750240851.2086828,2954
1750240851.2087562,2898
1750240851.20883,2633
1750240851.2089033,2144
1750240851.208977,1530
1750240851.2090504,1206
1750240851.2091248,1556
1750240851.2091918,2535
1750240851.2092652,3497
1750240851.2093394,3853
1750240851.2094123,3624
1750240851.2094855,3406
1750240851.209559,3466
1750240851.2096322,3518
1750240851.209706,3229
1750240851.2097795,2814
1750240851.209853,2734
1750240851.2099338,3229
1750240851.2100067,3966
1750240851.2100801,4482
1750240851.2101538,4605
1750240851.210228,4583
1750240851.2103024,4517
1750240851.210376,4247
1750240851.2104495,3655
1750240851.210523,3050
1750240851.2105963,2840
1750240851.2106698,3229
1750240851.2107441,3960
1750240851.2108178,4588
1750240851.210892,4787
1750240851.2109706,4614
1750240851.211048,4259
1750240851.2111247,3849
1750240851.211201,3442
1750240851.211277,3174
1750240851.2113538,3129
1750240851.211428,3365
1750240851.2115014,3810
1750240851.211573,4261
1750240851.211634,4469
1750240851.2117078,4415
1750240851.2487056,4219
1750240851.2692466,3953
1750240851.2694306,3637
1750240851.2710228,3354
1750240851.271102,3163
1750240851.2711813,3154
1750240851.2712595,3406
1750240851.2713344,3832
1750240851.2714083,4189
1750240851.2714846,4336
1750240851.2715588,4295
1750240851.2716205,4087
1750240851.271691,3741
1750240851.2717943,3360
1750240851.2718732,3056
1750240851.27195,2936
1750240851.272285,3125
1750240851.273787,3577
1750240851.2739134,4047
1750240851.274076,4313
1750240851.2741556,4343
1750240851.274234,4142
1750240851.2743127,3762
1750240851.2743914,3319
1750240851.2744691,2955
1750240851.2745478,2774
1750240851.2746263,2919
1750240851.2747056,3370
1750240851.2747858,3905
1750240851.2748632,4245
1750240851.2749422,4325
1750240851.27502,4145
1750240851.2751102,3770
1750240851.2751904,3308
1750240851.2752683,2911
1750240851.2753468,2673
1750240851.2754238,2746
1750240851.2755017,3149
1750240851.2755744,3695
1750240851.2756395,4084
1750240851.2757087,4211
1750240851.275774,4070
1750240851.2758396,3722
1750240851.2759044,3257
1750240851.2759702,2837
1750240851.2760355,2562
1750240851.2761045,2589
1750240851.2761781,2971
1750240851.2762513,3549
1750240851.2763245,3995
1750240851.2763975,4164
1750240851.2764704,4056
1750240851.2765439,3746
1750240851.276617,3316
1750240851.2766902,2898
1750240851.2767675,2565
1750240851.276841,2470
1750240851.2769141,2743
1750240851.2769876,3298
1750240851.2770607,3802
1750240851.277134,4028
1750240851.2772071,3949
1750240851.2772806,3649
1750240851.277354,3240
1750240851.2774272,2849
1750240851.2775004,2522
1750240851.2775738,2368
1750240851.277647,2560
1750240851.2777207,3086
1750240851.2777941,3644
1750240851.3240502,3935
1750240851.3618517,3885
1750240851.3655267,3567
1750240851.3737066,3138
1750240851.3737845,2747
1750240851.3738573,2440
1750240851.3739302,2262
1750240851.3740072,2376
1750240851.3740795,2822
1750240851.3741512,3371
1750240851.3742244,3718
1750240851.3742964,3751
1750240851.3743677,3490
1750240851.374439,3071
1750240851.3745108,2642
1750240851.374583,2298
1750240851.3746545,2092
1750240851.374726,2197
1750240851.374801,2664
1750240851.374874,3276
1750240851.3749473,3681
1750240851.3750193,3746
1750240851.375092,3496
1750240851.375182,3084
1750240851.375253,2650
1750240851.3753245,2291
1750240851.3753958,2033
1750240851.3754673,2049
1750240851.3851376,2443
1750240851.3861058,3062
1750240851.386184,3538
1750240851.386255,3682
1750240851.3863258,3482
1750240851.3863964,3083
1750240851.3864665,2636
1750240851.4119477,2261
1750240851.4481132,1972
1750240851.464822,1910
1750240851.473957,2210
1750240851.47431,2789
1750240851.474652,3305
1750240851.4749897,3528
1750240851.4753578,3404
1750240851.4756894,3040
1750240851.476026,2584
1750240851.4763577,2189
1750240851.4965496,1892
1750240851.501011,1811
1750240851.5014517,2092
1750240851.5028653,2679
1750240851.5030873,3234
1750240851.5032887,3489
1750240851.5034869,3389
1750240851.5036697,3039
1750240851.5038671,2595
1750240851.5040667,2202
1750240851.504264,1885
1750240851.5044637,1734
1750240851.5046616,1931
1750240851.5048592,2479
1750240851.5050561,3075
1750240851.505272,3401
1750240851.5054688,3365
1750240851.5056653,3045
1750240851.505862,2607
1750240851.5060582,2197
1750240851.5062666,1859
1750240851.506472,1654
1750240851.5066774,1780
1750240851.506888,2282
1750240851.5070922,2903
1750240851.5072994,3287
1750240851.50751,3309
1750240851.513125,3021
1750240851.539339,2597
1750240851.5512097,2183
1750240851.5662158,1841
1750240851.5665655,1602
1750240851.5666792,1665
1750240851.5667713,2119
1750240851.5668664,2760
1750240851.5808144,3206
1750240851.582088,3288
1750240851.582799,3032
1750240851.583128,2614
1750240851.5834467,2187
1750240851.5838675,1833
1750240851.584188,1563
1750240851.5845077,1558
1750240851.5848281,1942
1750240851.6078699,2575
1750240851.6199267,3077
1750240851.6208885,3237
1750240851.6219683,3039
1750240851.6231313,2640
1750240851.6245327,2200
1750240851.6322536,1841
1750240851.6324527,1566
1750240851.640003,1511
1750240851.6400793,1807
1750240851.6401458,2376
1750240851.6536634,2878
1750240851.6887765,3090
1750240851.7052488,2964
1750240851.7437184,2603
1750240851.7872217,2150
1750240851.806641,1755
1750240851.8189616,1458
1750240851.8280296,1389
1750240851.8299115,1694
1750240851.8303027,2308
1750240851.830651,2882
1750240851.830982,3142
1750240851.8313167,3040
1750240851.8316438,2690
1750240851.834421,2253
1750240851.8345494,1863
1750240851.8346689,1539
1750240851.8347867,1374
1750240851.8349047,1563
1750240851.8350208,2120
1750240851.8351505,2732
1750240851.8352988,3064
1750240851.8398948,3021
1750240851.8458343,2696
1750240851.8461275,2271
1750240851.8461976,1883
1750240851.8462641,1554
1750240851.8581135,1338
1750240851.8582056,1451
1750240851.8582864,1965
1750240851.858366,2616
1750240851.8584602,3021
1750240851.8585398,3036
1750240851.8721123,2728
1750240851.889534,2300
1750240851.9394045,1903
1750240851.9395425,1574
1750240851.9399931,1326
1750240851.940849,1366
1750240851.9501977,1813
1750240851.9581175,2471
1750240851.9598606,2940
1750240851.9604378,3030
1750240851.9613893,2767
1750240851.9629228,2346
1750240851.964803,1931
1750240851.9649136,1592
1750240851.9650273,1325
1750240851.9651475,1315
1750240851.9652507,1703
1750240851.9653556,2352
1750240851.9654582,2863
1750240851.9655607,3012
1750240851.9656627,2795
1750240851.9741797,2392
1750240851.9742873,1968
1750240851.9751544,1617
1750240851.9752657,1327
1750240851.9753714,1253
1750240851.9754746,1569
1750240851.9755774,2200
1750240851.9756804,2762
1750240851.9757936,2983
1750240851.9758978,2820
1750240851.9760005,2432
1750240851.976103,1997
1750240851.976206,1634
1750240851.9763098,1331
1750240851.9764132,1206
1750240851.9765155,1452
1750240851.976618,2053
1750240851.97672,2653
1750240851.9768312,2936
1750240851.9769337,2828
1750240851.9770358,2464
1750240851.9771385,2036
1750240851.9772406,1676
1750240851.9773424,1376
1750240851.977445,1208
1750240851.9775467,1384
1750240851.977649,1944
1750240851.977751,2578
1750240851.9778533,2930
1750240851.9779558,2886
1750240851.978058,2546
1750240851.991123,2113
1750240851.9938273,1733
1750240851.993901,1417
1750240851.9939673,1202
1750240851.994033,1304
1750240851.9986346,1807
1750240852.0881283,2455
1750240852.1786342,2864
1750240852.1808581,2882
1750240852.181712,2575
1750240852.182836,2149
1750240852.1882765,1760
1750240852.1883547,1443
1750240852.1884546,1204
1750240852.1885328,1249
1750240852.1886048,1697
1750240852.190323,2352
1750240852.190437,2813
1750240852.190542,2890
1750240852.1912022,2621
1750240852.1913123,2211
1750240852.191418,1819
1750240852.191522,1497
1750240852.191626,1222
1750240852.1917322,1187
1750240852.1971884,1557
1750240852.1973195,2209
1750240852.1973934,2734
1750240852.197465,2888
1750240852.197535,2669
1750240852.1976054,2271
1750240852.1976757,1866
1750240852.1977456,1535
1750240852.1978157,1249
1750240852.197886,1168
1750240852.1979563,1482
1750240852.1980264,2123
1750240852.1980958,2689
1750240852.1981661,2893
1750240852.198236,2707
1750240852.1983063,2315
1750240852.1983757,1904
1750240852.198457,1572
1750240852.2791936,1279
1750240852.279311,1141
1750240852.28465,1374
1750240852.285651,1976
1750240852.2865276,2584
1750240852.2872038,2871
1750240852.2902308,2764
1750240852.2903483,2407
1750240852.291747,1991
1750240852.2929273,1636
1750240852.2945025,1322
1750240852.2978957,1132
1750240852.3022852,1294
1750240852.3023868,1854
1750240852.3028994,2493
1750240852.303529,2841
1750240852.3038754,2788
1750240852.304209,2446
1750240852.3152518,2024
1750240852.3511364,1661
1750240852.3512886,1356
1750240852.3513927,1145
1750240852.3514962,1248
1750240852.3516958,1754
1750240852.351839,2406
1750240852.351943,2814
1750240852.3520453,2829
1750240852.352147,2523
1750240852.3522499,2105
1750240852.352353,1724
1750240852.3524652,1407
1750240852.3525672,1160
1750240852.3526692,1192
1750240852.3840241,1635
1750240852.4012454,2295
1750240852.403851,2766
1750240852.4040895,2854
1750240852.4042187,2588
1750240852.4042947,2175
1750240852.4043705,1776
1750240852.4044456,1451
1750240852.4045205,1182
1750240852.404595,1155
1750240852.4046707,1527
1750240852.4047449,2170
1750240852.4048328,2683
1750240852.4049072,2830
1750240852.404982,2610
1750240852.405057,2211
1750240852.4051452,1803
1750240852.4052203,1469
1750240852.4052954,1184
1750240852.4054482,1104
1750240852.4055266,1415
1750240852.4056013,2050
1750240852.4056761,2617
1750240852.4057512,2836
1750240852.4058259,2667
1750240852.4059,2281
1750240852.4059746,1859
1750240852.406049,1514
1750240852.4061239,1219
1750240852.4061983,1086
1750240852.4062724,1317
1750240852.406347,1909
1750240852.4064217,2511
1750240852.406496,2802
1750240852.4065707,2701
1750240852.4066453,2340
1750240852.4067197,1910
1750240852.406794,1550
1750240852.4068685,1251
1750240852.4069426,1081
1750240852.4070156,1252
1750240852.407087,1805
1750240852.407159,2436
1750240852.4072304,2788
1750240852.407302,2744
1750240852.407373,2402
1750240852.4074535,1972
1750240852.4075246,1601
1750240852.4075963,1298
1750240852.4076679,1087
1750240852.4077394,1181
1750240852.4078104,1674
1750240852.4078817,2327
1750240852.4079528,2751
1750240852.408024,2781
1750240852.4080956,2473
1750240852.4081666,2039
1750240852.408238,1648
1750240852.4083087,1335
1750240852.4083798,1098
1750240852.4084635,1133
1750240852.408536,1569
1750240852.408608,2225
1750240852.4101977,2702
1750240852.410274,2796
1750240852.4103453,2529
1750240852.4104173,2105
1750240852.4104886,1697
1750240852.4105597,1373
1750240852.410631,1111
1750240852.410702,1087
1750240852.410773,1459
1750240852.4108438,2109
1750240852.4109151,2637
1750240852.4109862,2798
1750240852.4110575,2580
1750240852.4111288,2172
1750240852.4112005,1756
1750240852.4112723,1423
1750240852.4113433,1141
1750240852.4114237,1056
1750240852.411495,1354
1750240852.4115665,1985
1750240852.4116368,2561
1750240852.4117067,2794
1750240852.4117887,2631
1750240852.4118612,2239
1750240852.4119334,1811
1750240852.4120054,1467
1750240852.4120774,1178
1750240852.412149,1048
1750240852.4122217,1281
1750240852.4122922,1879
1750240852.412363,2491
1750240852.4124346,2785
1750240852.4125066,2678
1750240852.4125783,2309
1750240852.4126503,1881
1750240852.4127219,1528
1750240852.4127939,1229
1750240852.412866,1048
1750240852.4129372,1204
1750240852.4130087,1756
1750240852.4130802,2399
1750240852.4131515,2762
1750240852.4132245,2722
1750240852.413297,2380
1750240852.413376,1948
1750240852.4134471,1576
1750240852.4135177,1267
1750240852.4135895,1049
1750240852.4136598,1142
1750240852.413731,1644
1750240852.413802,2303
1750240852.4138727,2721
1750240852.4139438,2737
1750240852.414015,2426
1750240852.4140856,2005
1750240852.414157,1631
1750240852.414228,1326
1750240852.4142988,1082
1750240852.41437,1109
1750240852.414441,1545
1750240852.4145155,2207
1750240852.4145868,2685
1750240852.4146585,2774
1750240852.4147294,2504
1750240852.4148006,2089
1750240852.4148715,1693
1750240852.414942,1369
1750240852.4150128,1094
1750240852.415084,1057
1750240852.4523702,1429
1750240852.4621184,2091
1750240852.4715285,2627
1750240852.477644,2785
1750240852.479891,2563
1750240852.479974,2163
1750240852.4800477,1760
1750240852.4801219,1437
1750240852.4802105,1157
1750240852.4802837,1071
1750240852.4803553,1377
1750240852.4804268,2016
1750240852.480498,2594
1750240852.4805694,2815
1750240852.4806404,2644
1750240852.4807117,2257
1750240852.4808185,1842
1750240852.4808912,1502
1750240852.4809625,1201
1750240852.481034,1055
1750240852.4811049,1283
1750240852.4811761,1889
1750240852.4812472,2512
1750240852.4813175,2810
1750240852.4813888,2702
1750240852.4814599,2333
1750240852.4815311,1904
1750240852.481602,1546
1750240852.4816728,1240
1750240852.4817438,1057
1750240852.481833,1223
1750240852.4819329,1787
1750240852.4820113,2438
1750240852.4820905,2801
1750240852.482177,2756
1750240852.482256,2412
1750240852.4824297,1982
1750240852.482509,1611
1750240852.4825876,1299
1750240852.4826667,1076
1750240852.4827623,1163
1750240852.482841,1660
1750240852.4829197,2320
1750240852.4829986,2748
1750240852.483077,2777
1750240852.483156,2471
1750240852.5258203,2045
1750240852.5382338,1658
1750240852.5547404,1340
1750240852.583979,1090
1750240852.6024828,1116
1750240852.6027057,1555
1750240852.6214154,2224
1750240852.6214943,2708
1750240852.6215641,2800
1750240852.621631,2527
1750240852.6216974,2108
1750240852.6217709,1712
1750240852.6218371,1393
1750240852.621905,1122
1750240852.621972,1086
1750240852.6220381,1458
1750240852.6221056,2124
1750240852.6221743,2666
1750240852.6222398,2825
1750240852.622306,2593
1750240852.6223736,2178
1750240852.6224391,1766
1750240852.622506,1438
1750240852.6225727,1152
1750240852.6226382,1056
1750240852.622705,1350
1750240852.6227727,1990
1750240852.6228397,2580
1750240852.6229055,2817
1750240852.622971,2650
1750240852.6230369,2255
1750240852.623103,1829
1750240852.6231687,1485
1750240852.623234,1188
1750240852.6232996,1045
1750240852.623366,1273
1750240852.6234326,1877
1750240852.6234946,2500
1750240852.623558,2799
1750240852.6236238,2688
1750240852.6236906,2314
1750240852.623759,1882
1750240852.6238248,1525
1750240852.6238904,1219
1750240852.6239567,1028
1750240852.6240232,1180
1750240852.624089,1735
1750240852.6241558,2388
1750240852.6242208,2762
1750240852.6242871,2724
1750240852.6243527,2379
1750240852.6244185,1945
1750240852.6244845,1574
1750240852.6245508,1267
1750240852.6246166,1047
1750240852.6246824,1134
1750240852.6247478,1632
1750240852.6248133,2297
1750240852.6248796,2731
1750240852.6249454,2761
1750240852.6250117,2449
1750240852.6250725,2017
1750240852.6251419,1628
1750240852.625208,1314
1750240852.6252732,1067
1750240852.62534,1092
1750240852.6254067,1530
1750240852.6254725,2201
1750240852.625538,2693
1750240852.6256044,2791
1750240852.6256714,2517
1750240852.6257467,2089
1750240852.6690946,1684
1750240852.6749609,1362
1750240852.6753585,1093
1750240852.681332,1057
1750240852.6814463,1426
1750240852.6815543,2088
1750240852.6816633,2635
1750240852.6823823,2809
1750240852.682491,2594
1750240852.6825936,2187
1750240852.682696,1772
1750240852.6845438,1436
1750240852.713937,1142
1750240852.7140496,1042
1750240852.7141538,1334
1750240852.7142696,1974
1750240852.714373,2566
1750240852.722459,2806
1750240852.7225387,2639
1750240852.7226121,2243
1750240852.7226849,1816
1750240852.7227569,1474
1750240852.7228293,1179
1750240852.7229016,1036
1750240852.7229729,1260
1750240852.7230444,1861
1750240852.7231164,2483
1750240852.7485297,2787
1750240852.7565014,2685
1750240852.7568886,2320
1750240852.757111,1895
1750240852.7571886,1540
1750240852.7572923,1234
1750240852.7573574,1045
1750240852.7575269,1200
1750240852.7578814,1758
1750240852.7579546,2409
1750240852.75803,2777
1750240852.758105,2738
1750240852.7581806,2400
1750240852.7582552,1975
1750240852.75833,1607
1750240852.7585173,1296
1750240852.7586946,1070
1750240852.758877,1153
1750240852.759052,1648
1750240852.7592683,2308
1750240852.7597363,2735
1750240852.7599072,2764
1750240852.7601113,2460
1750240852.7603185,2039
1750240852.760569,1656
1750240852.760775,1340
1750240852.7610195,1091
1750240852.761417,1114
1750240852.7616475,1549
1750240852.7618752,2215
1750240852.761967,2703
1750240852.7620378,2805
1750240852.7621083,2540
1750240852.762179,2119
1750240852.7622497,1715
1750240852.7623203,1397
1750240852.7623928,1137
1750240852.7624876,1099
1750240852.8488543,1441
1750240852.8555977,2061
1750240852.869456,2578
1750240852.8769398,2752
1750240852.8834412,2555
1750240852.8910723,2154
1750240852.8912613,1724
1750240852.8913438,1376
1750240852.8914232,1102
1750240852.891502,1046
1750240852.8915746,1376
1750240852.8966758,2020
1750240852.8967476,2595
1750240852.8968172,2824
1750240852.8968844,2665
1750240852.8974423,2280
1750240852.8975582,1851
1750240852.8978772,1496
1750240852.897949,1195
1750240852.898016,1055
1750240852.8980865,1274
1750240852.8981552,1852
1750240852.898223,2452
1750240852.8987644,2757
1750240852.8988369,2677
1750240852.8989062,2328
1750240852.8991227,1897
1750240852.8991914,1523
1750240852.8992572,1211
1750240852.8993242,1034
1750240852.8993895,1201
1750240852.8994558,1752
1750240852.8998938,2387
1750240852.9006069,2749
1750240852.9007342,2719
1750240852.9008038,2386
1750240852.9008696,1952
1750240852.9018967,1568
1750240852.9020042,1260
1750240852.902108,1061
1750240852.9022112,1178
1750240852.9023147,1693
1750240852.902417,2360
1750240852.9025202,2793
1750240852.9026225,2829
1750240852.9027255,2525
1750240852.902828,2086
1750240852.9029307,1681
1750240852.9030404,1355
1750240852.903123,1104
1750240852.903193,1112
1750240852.9032626,1506
1750240852.903333,2131
1750240852.9034026,2611
1750240852.903473,2742
1750240852.9036574,2512
1750240852.9037335,2095
1750240852.9038033,1668
1750240852.9038737,1333
1750240852.903943,1088
1750240852.9040134,1087
1750240852.904082,1461
1750240852.9041524,2093
1750240852.9042218,2612
1750240852.9042914,2790
1750240852.9043608,2594
1750240852.9044302,2186
1750240852.9044998,1745
1750240852.9045691,1392
1750240852.904639,1116
1750240852.9136543,1048
1750240852.962676,1349
1750240852.9958906,1964
1750240853.0321703,2531
1750240853.113073,2773
1750240853.1580184,2630
1750240853.1805174,2245
1750240853.2167382,1806
1750240853.2170918,1447
1750240853.2182744,1159
1750240853.2400486,1041
1750240853.275802,1284
1750240853.2758846,1883
1750240853.275955,2501
1750240853.276022,2810
1750240853.276088,2719
1750240853.276433,2349
1750240853.2764997,1905
1750240853.2781615,1534
1750240853.2814674,1229
1750240853.2815788,1043
1750240853.2816823,1179
1750240853.2818222,1693
1750240853.2819252,2311
1750240853.2820005,2685
1750240853.282075,2680
1750240853.28215,2363
1750240853.2822251,1924
1750240853.2822986,1521
1750240853.2823732,1194
1750240853.28253,994
1750240853.2826054,1133
1750240853.282679,1682
1750240853.3182132,2373
1750240853.318351,2802
1750240853.3340929,2813
1750240853.3375473,2487
1750240853.338081,2052
1750240853.3389804,1664
1750240853.3390613,1343
1750240853.3428385,1079
1750240853.3429294,1087
1750240853.3443928,1518
1750240853.34471,2198
1750240853.3447945,2708
1750240853.3448725,2823
1750240853.3449502,2561
1750240853.3450277,2134
1750240853.3451228,1722
1750240853.3451862,1389
1750240853.3452508,1110
1750240853.345328,1066
1750240853.3454053,1426
1750240853.3454912,2081
1750240853.3455682,2627
1750240853.3457582,2806
1750240853.3458354,2597
1750240853.3459127,2187
1750240853.3459895,1761
1750240853.346066,1418
1750240853.3461437,1134
1750240853.3462224,1056
1750240853.3463006,1368
1750240853.3463776,2014
1750240853.3464549,2605
1750240853.346532,2844
1750240853.346609,2680
1750240853.346686,2282
1750240853.3467634,1846
1750240853.3468401,1490
1750240853.3469167,1187
1750240853.3469932,1043
1750240853.3470697,1270
1750240853.347146,1876
1750240853.3472228,2507
1750240853.3472993,2820
1750240853.3473759,2721
1750240853.347457,2347
1750240853.3475168,1905
1750240853.3475766,1534
1750240853.3476427,1222
1750240853.3477116,1038
1750240853.3477898,1201
1750240853.3478677,1764
1750240853.347945,2420
1750240853.3480213,2793
1750240853.3481002,2758
1750240853.3481784,2419
1750240853.3482554,1987
1750240853.348332,1610
1750240853.3484082,1293
1750240853.3485155,1069
1750240853.3485928,1158
1750240853.3486702,1657
1750240853.3487465,2321
1750240853.3699064,2753
1750240853.4066007,2785
1750240853.4066975,2482
1750240853.4067862,2054
1750240853.4068732,1660
1750240853.4070344,1332
1750240853.4071236,1074
1750240853.4072108,1101
1750240853.4072983,1550
1750240853.4108026,2234
1750240853.4108946,2730
1750240853.410975,2824
1750240853.4110544,2547
1750240853.4111335,2121
1750240853.4112089,1718
1750240853.4112885,1392
1750240853.4113674,1116
1750240853.411446,1081
1750240853.4117322,1465
1750240853.4118562,2148
1750240853.4119363,2702
1750240853.412016,2860
1750240853.412096,2619
1750240853.412177,2201
1750240853.4122581,1791
1750240853.4123454,1460
1750240853.412424,1157
1750240853.412503,1042
1750240853.412582,1336
1750240853.4126606,1995
1750240853.4127383,2607
1750240853.412818,2847
1750240853.4128888,2668
1750240853.4129674,2263
1750240853.413072,1836
1750240853.4131541,1490
1750240853.4132338,1179
1750240853.4133127,1020
1750240853.413392,1250
1750240853.4668958,1882
1750240853.4738274,2537
1750240853.4739408,2849
1750240853.4740474,2728
1750240853.4741542,2334
1750240853.4742725,1897
1750240853.4743788,1547
1750240853.474484,1247
1750240853.4745896,1044
1750240853.4747047,1162
1750240853.4748106,1681
1750240853.4749157,2318
1750240853.475021,2703
1750240853.475156,2689
1750240853.475267,2354
1750240853.4753726,1906
1750240853.4754772,1514
1750240853.4756823,1204
1750240853.4757843,1012
1750240853.475885,1140
1750240853.4759858,1667
1750240853.4760854,2340
1750240853.4761865,2765
1750240853.4762878,2785
1750240853.476389,2468
1750240853.4764893,2031
1750240853.47659,1636
1750240853.476692,1313
1750240853.4767938,1064
1750240853.476894,1094
1750240853.4769948,1541
1750240853.4771929,2223
1750240853.4773061,2721
1750240853.4774077,2822
1750240853.477508,2551
1750240853.477609,2123
1750240853.4777098,1712
1750240853.4778118,1380
1750240853.4779124,1102
1750240853.4780123,1065
1750240853.4781132,1436
1750240853.4782145,2103
1750240853.478315,2656
1750240853.483746,2837
1750240853.4838212,2621
1750240853.4838915,2202
1750240853.4839613,1770
1750240853.484031,1430
1750240853.4841008,1153
1750240853.4841702,1069
1750240853.4842396,1350
1750240853.4843092,1949
1750240853.4843786,2507
1750240853.484448,2748
1750240853.4845178,2611
1750240853.484587,2231
1750240853.4846563,1785
1750240853.4847252,1407
1750240853.484794,1102
1750240853.4848635,989
1750240853.4849327,1257
1750240853.485002,1883
1750240853.4850717,2508
1750240853.5063765,2805
1750240853.5187302,2696
1750240853.5450394,2320
1750240853.6217759,1879
1750240853.62193,1511
1750240853.6266663,1203
1750240853.6267512,1024
1750240853.6268272,1188
1750240853.631939,1746
1750240853.6320522,2393
1750240853.6470907,2761
1750240853.6704261,2723
1750240853.6804628,2378
1750240853.6809418,1939
1750240853.6810544,1557
1750240853.681797,1240
1750240853.6819453,1021
1750240853.6820557,1119
1750240853.6822076,1629
1750240853.7173057,2302
1750240853.7833169,2740
1750240853.8625095,2775
1750240853.8809023,2466
1750240853.8833227,2028
1750240853.9039602,1622
1750240853.904055,1289
1750240853.9041283,1034
1750240853.9051569,1065
1750240853.9441721,1511
1750240853.9468923,2183
1750240853.9469774,2673
1750240853.9470515,2775
1750240853.947149,2514
1750240853.9472265,2091
1750240853.9607093,1673
1750240853.990102,1331
1750240853.995805,1057
1750240853.9959323,1036
1750240853.9960506,1421
1750240853.9961689,2085
1750240854.0134773,2623
1750240854.0138197,2791
1750240854.0141556,2577
1750240854.0144868,2166
1750240854.0148168,1740
1750240854.0175326,1399
1750240854.0457299,1120
1750240854.0458117,1038
1750240854.045886,1324
1750240854.0459597,1924
1750240854.048286,2478
1750240854.048467,2717
1750240854.0485427,2580
1750240854.0486152,2205
1750240854.0487266,1764
1750240854.0487998,1392
1750240854.048872,1099
1750240854.0489438,1001
1750240854.0490613,1281
1750240854.049122,1908
1750240854.0491884,2526
1750240854.049259,2819
1750240854.0493295,2711
1750240854.0494,2334
1750240854.0495007,1885
1750240854.0495713,1513
1750240854.0496466,1214
1750240854.0497177,1048
1750240854.049788,1205
1750240854.068695,1727
1750240854.0693889,2337
1750240854.0694647,2701
1750240854.069536,2697
1750240854.069607,2385
1750240854.0696764,1945
1750240854.0697472,1533
1750240854.069818,1197
1750240854.0698876,995
1750240854.0699577,1131
1750240854.0700266,1664
1750240854.0700958,2333
1750240854.070165,2754
1750240854.0702343,2782
1750240854.0703032,2477
1750240854.086285,2042
1750240854.087758,1633
1750240854.0950034,1300
1750240854.0950809,1054
1750240854.0951831,1096
1750240854.095253,1544
1750240854.0953236,2211
1750240854.0953932,2698
1750240854.0954633,2803
1750240854.0955315,2543
1750240854.095602,2118
1750240854.0956702,1702
1750240854.095738,1371
1750240854.0958061,1106
1750240854.0958745,1074
1750240854.095943,1421
1750240854.096011,2041
1750240854.0960793,2562
1750240854.0961485,2749
1750240854.0962186,2563
1750240854.0962865,2160
1750240854.096354,1713
1750240854.0964234,1342
1750240854.0964925,1056
1750240854.0965612,1012
1750240854.0966446,1369
1750240854.0967126,2037
1750240854.0967827,2619
1750240854.1257496,2836
1750240854.1351297,2654
1750240854.1421502,2251
1750240854.1687684,1815
1750240854.1849551,1461
1750240854.2403738,1159
1750240854.240548,1020
1750240854.2406876,1249
1750240854.2427456,1850
1750240854.2439826,2474
1750240854.2440748,2789
1750240854.2441647,2700
1750240854.2442765,2330
1750240854.2443628,1881
1750240854.2444863,1497
1750240854.244708,1183
1750240854.2447953,1010
1750240854.2449074,1182
1750240854.2449937,1739
1750240854.2450697,2380
1750240854.2453234,2753
1750240854.2454114,2733
1750240854.2454965,2398
1750240854.2455823,1947
1750240854.2456672,1545
1750240854.2843487,1229
1750240854.284488,1035
1750240854.3667064,1153
1750240854.3954144,1650
1750240854.3955023,2287
1750240854.3955686,2705
1750240854.3956356,2748
1750240854.3957033,2453
1750240854.3957696,2007
1750240854.3958364,1583
1750240854.3959026,1249
1750240854.3959694,1021
1750240854.396035,1078
1750240854.3961012,1519
1750240854.3961673,2161
1750240854.3962328,2632
1750240854.3962984,2744
1750240854.3963642,2499
1750240854.3965642,2076
1750240854.3966365,1643
1750240854.3967063,1293
1750240854.3967726,1034
1750240854.3968384,1044
1750240854.3969047,1455
1750240854.3969707,2127
1750240854.3970323,2659
1750240854.3970938,2816
1750240854.3971596,2593
1750240854.3972254,2184
1750240854.3972912,1763
1750240854.3973582,1417
1750240854.3974233,1121
1750240854.3974893,1033
1750240854.3975596,1344
1750240854.3976269,1993
1750240854.397695,2584
1750240854.3977628,2821
1750240854.397829,2657
1750240854.3978944,2264
1750240854.3979607,1833
1750240854.3980262,1475
1750240854.3980927,1168
1750240854.3981593,1030
1750240854.398225,1269
1750240854.3982906,1880
1750240854.3983605,2504
1750240854.398445,2808
1750240854.3985176,2709
1750240854.3985872,2342
1750240854.3986564,1906
1750240854.3987253,1538
1750240854.4320412,1232
1750240854.4652808,1054
1750240854.465356,1211
1750240854.465424,1743
1750240854.4654915,2358
1750240854.4655592,2712
1750240854.4656255,2686
1750240854.4656913,2360
1750240854.4657578,1919
1750240854.4658237,1519
1750240854.4658911,1197
1750240854.4659567,1007
1750240854.4660218,1149
1750240854.4660876,1684
1750240854.466153,2343
1750240854.4662194,2753
1750240854.4662848,2771
1750240854.4663508,2465
1750240854.46642,2036
1750240854.4664855,1641
1750240854.4665513,1322
1750240854.4666164,1084
1750240854.4666812,1118
1750240854.4667466,1540
1750240854.4668124,2171
1750240854.466878,2636
1750240854.4669433,2748
1750240854.4670088,2511
1750240854.4670737,2100
1750240854.4671388,1676
1750240854.467204,1329
1750240854.4672697,1071
1750240854.4673355,1085
1750240854.4674008,1503
1750240854.4674668,2176
1750240854.4675317,2702
1750240854.4675972,2853
1750240854.4676623,2630
1750240854.4677274,2223
1750240854.4677927,1800
1750240854.4678578,1449
1750240854.4679232,1149
1750240854.467989,1061
1750240854.468054,1375
1750240854.4681194,2023
1750240854.4681842,2608
1750240854.4682496,2838
1750240854.468315,2670
1750240854.4683874,2279
1750240854.4941573,1856
1750240854.5157135,1506
1750240854.5621605,1200
1750240854.5622537,1056
1750240854.5623384,1291
1750240854.5624728,1901
1750240854.5625548,2523
1750240854.5626373,2819
1750240854.5627193,2709
1750240854.563053,2336
1750240854.5631506,1903
1750240854.5632782,1540
1750240854.56338,1226
1750240854.5634627,1040
1750240854.5635417,1207
1750240854.5636067,1776
1750240854.5637312,2428
1750240854.5638225,2788
1750240854.563904,2739
1750240854.5639853,2396
1750240854.564066,1971
1750240854.564195,1601
1750240854.5642772,1281
1750240854.5643585,1053
1750240854.5644393,1150
1750240854.5645201,1668
1750240854.5687165,2339
1750240854.5811925,2753
1750240854.5816333,2755
1750240854.581708,2433
1750240854.6245008,2015
1750240854.6432464,1649
1750240854.6649647,1340
1750240854.6650443,1082
1750240854.6651256,1097
1750240854.6651924,1535
1750240854.6652584,2207
1750240854.6653247,2693
1750240854.6653914,2781
1750240854.6654584,2506
1750240854.6655247,2086
1750240854.6655908,1690
1750240854.6656568,1368
1750240854.665723,1096
1750240854.665789,1064
1750240854.6658545,1441
1750240854.6659203,2103
1750240854.6659863,2634
1750240854.6660523,2787
1750240854.6661189,2558
1750240854.6661844,2151
1750240854.666251,1745
1750240854.6663167,1418
1750240854.6663828,1135
1750240854.6664484,1048
1750240854.6665137,1353
1750240854.6665797,1989
1750240854.6666458,2562
1750240854.6667118,2782
1750240854.6667778,2610
1750240854.6668437,2222
1750240854.6669092,1806
1750240854.6669757,1465
1750240854.6670432,1166
1750240854.6671095,1028
1750240854.6671772,1265
1750240854.667244,1876
1750240854.6673102,2497
1750240854.667378,2792
1750240854.6674438,2680
1750240854.6675034,2310
1750240854.6675696,1885
1750240854.6676388,1534
1750240854.667705,1231
1750240854.6677697,1048
1750240854.667836,1210
1750240854.6679015,1770
1750240854.6679678,2416
1750240854.6680336,2773
1750240854.6681008,2721
1750240854.6681674,2371
1750240854.6682339,1939
1750240854.6683009,1570
1750240854.6683676,1260
1750240854.6894126,1042
1750240854.6895254,1141
1750240854.6895938,1652
1750240854.6896596,2322
1750240854.6897264,2749
1750240854.6897945,2772
1750240854.6898608,2464
1750240854.6899269,2039
1750240854.689995,1653
1750240854.6900613,1328
1750240854.690128,1068
1750240854.6901946,1091
1750240854.6902628,1533
1750240854.6903293,2204
1750240854.6903975,2686
1750240854.690464,2771
1750240854.690531,2496
1750240854.6906035,2078
1750240854.6906722,1685
1750240854.6907399,1367
1750240854.690808,1100
1750240854.690875,1071
1750240854.6909413,1448
1750240854.6910079,2110
1750240854.6910849,2644
1750240854.6911595,2803
1750240854.691234,2579
1750240854.6913085,2171
1750240854.6913836,1756
1750240854.6914582,1417
1750240854.6915345,1124
1750240854.6915941,1034
1750240854.691666,1341
1750240854.6917417,1982
1750240854.6918352,2562
1750240854.6919105,2790
1750240854.6919851,2623
1750240854.692061,2237
1750240854.6921356,1817
1750240854.69221,1472
1750240854.6922846,1173
1750240854.6923597,1036
1750240854.6924348,1269
1750240854.6925092,1868
1750240854.6925879,2478
1750240854.8012683,2769
1750240854.8019433,2664
1750240854.8020513,2298
1750240854.8021545,1867
1750240854.8022666,1503
1750240854.802332,1196
1750240854.8023968,1024
1750240854.8024607,1201
1750240854.8025253,1766
1750240854.8025901,2407
1750240854.8026547,2763
1750240854.8027189,2721
1750240854.8027828,2384
1750240854.8028471,1951
1750240854.8029108,1568
1750240854.802975,1251
1750240854.8030393,1037
1750240854.8031037,1141
1750240854.803165,1647
1750240854.803226,2301
1750240854.8032892,2719
1750240854.8033533,2744
1750240854.8034174,2435
1750240854.803477,2000
1750240854.8053215,1604
1750240854.8053966,1292
1750240854.8054643,1063
1750240854.8055308,1106
1750240854.8055959,1537
1750240854.8056612,2181
1750240854.8057265,2653
1750240854.8057926,2761
1750240854.8058581,2511
1750240854.805923,2087
1750240854.8059886,1655
1750240854.8060522,1301
1750240854.8061173,1028
1750240854.8061821,1020
1750240854.8062472,1417
1750240854.806312,2081
1750240854.8063772,2609
1750240854.8064425,2766
1750240854.8065073,2549
1750240854.8065724,2148
1750240854.8066373,1732
1750240854.806703,1387
1750240854.8067675,1095
1750240854.8068326,1012
1750240854.8068972,1323
1750240854.8069618,1960
1750240854.8070264,2533
1750240854.8070917,2759
1750240854.8071566,2599
1750240854.8072214,2221
1750240854.8072855,1800
1750240854.80735,1444
1750240854.8074148,1134
1750240854.8074749,993
1750240854.8075364,1233
1750240854.8076007,1843
1750240854.8076713,2460
1750240854.8077407,2754
1750240854.8080146,2649
1750240854.8080838,2283
1750240854.8081532,1851
1750240854.8082225,1483
1750240854.8082922,1169
1750240854.8083613,988
1750240854.8084397,1159
1750240854.8085036,1726
1750240854.8085625,2370
1750240854.8086302,2726
1750240854.8086994,2677
1750240854.8118505,2333
1750240854.8119304,1903
1750240854.8120036,1527
1750240854.814386,1208
1750240854.8144734,984
1750240854.8145454,1084
1750240854.8146172,1599
1750240854.8146882,2269
1750240854.81476,2694
1750240854.814831,2714
1750240854.814902,2404
1750240854.8149726,1982
1750240854.815044,1593
1750240854.8151567,1261
1750240854.8152294,997
1750240854.815302,1033
1750240854.815374,1509
1750240854.8154447,2214
1750240854.815516,2710
1750240854.8155754,2784
1750240854.8156466,2490
1750240854.8157125,2065
1750240854.815778,1674
1750240854.8158433,1354
1750240854.8159091,1073
1750240854.8159704,1028
1750240854.8160334,1400
1750240854.8160996,2069
1750240854.8161657,2614
1750240854.8164515,2778
1750240854.8608594,2557
1750240854.8735018,2153
1750240854.9225461,1740
1750240854.923823,1396
1750240854.9280705,1094
1750240854.9367251,1003
1750240854.9368255,1321
1750240854.9368994,1977
1750240854.9369721,2565
1750240854.9381406,2790
1750240854.9382133,2619
1750240854.9382856,2232
1750240854.9383593,1815
1750240854.9384406,1470
1750240854.938513,1169
1750240854.9385846,1036
1750240854.9386563,1283
1750240854.938728,1897
1750240854.9388,2513
1750240854.938872,2800
1750240854.9389434,2685
1750240854.9390101,2313
1750240854.9390805,1879
1750240854.9391525,1510
1750240854.9392238,1193
1750240854.939295,1011
1750240854.9393663,1185
1750240854.939438,1755
1750240854.9395072,2402
1750240854.9395666,2760
1750240854.939637,2716
1750240854.9397082,2376
1750240854.9397795,1942
1750240854.939851,1556
1750240854.9399207,1229
1750240854.939992,1007
1750240854.9400632,1114
1750240854.9401348,1631
1750240854.9402063,2295
1750240854.940278,2711
1750240854.9403563,2729
1750240854.9404278,2422
1750240854.9404995,2002
1750240854.9405706,1614
1750240854.9406424,1285
1750240854.9407136,1029
1750240854.9407835,1067
1750240854.9444804,1527
1750240854.9452052,2205
1750240854.9452858,2686
1750240854.945364,2770
1750240854.945441,2497
1750240854.945518,2078
1750240854.945595,1673
1750240854.9456728,1335
1750240854.94575,1052
1750240854.945827,1027
1750240854.945904,1421
1750240854.9459982,2099
1750240855.0087867,2639
1750240855.0372827,2794
1750240855.0379453,2567
1750240855.0382092,2158
1750240855.0382888,1741
1750240855.0383675,1398
1750240855.0384593,1105
1750240855.038541,1024
1750240855.0405803,1343
1750240855.0409179,1992
1750240855.041023,2570
1750240855.0411243,2792
1750240855.0546145,2621
1750240855.0555344,2231
1750240855.0581532,1803
1750240855.0583887,1444
1750240855.058502,1133
1750240855.0847516,996
1750240855.0848277,1243
1750240855.1110997,1860
1750240855.1254876,2480
1750240855.1259181,2774
1750240855.1553044,2667
1750240855.1554632,2298
1750240855.155531,1862
1750240855.155595,1490
1750240855.1556673,1173
1750240855.1557405,996
1750240855.1558123,1174
1750240855.1558843,1741
1750240855.1559565,2381
1750240855.1560295,2737
1750240855.156102,2698
1750240855.1561744,2365
1750240855.156247,1934
1750240855.1563194,1548
1750240855.1563911,1221
1750240855.1564643,1006
1750240855.156537,1122
1750240855.1566095,1645
1750240855.1566923,2306
1750240855.1567643,2720
1750240855.1568367,2738
1750240855.1569088,2432
1750240855.1569812,2004
1750240855.1570523,1601
1750240855.1571212,1260
1750240855.1571932,1004
1750240855.157266,1053
1750240855.1573377,1525
1750240855.15741,2207
1750240855.1574817,2685
1750240855.1575537,2764
1750240855.157626,2488
1750240855.1577036,2071
1750240855.157776,1668
1750240855.1578481,1332
1750240855.1579192,1050
1750240855.1579907,1023
1750240855.1580615,1417
1750240855.1581333,2095
1750240855.1582043,2636
1750240855.1582763,2791
1750240855.1583478,2560
1750240855.15842,2149
1750240855.1612985,1734
1750240855.1613789,1393
1750240855.161452,1096
1750240855.161525,1008
1750240855.161597,1328
1750240855.1616688,1986
1750240855.161741,2577
1750240855.1618268,2802
1750240855.1619499,2622
1750240855.162025,2223
1750240855.1620977,1797
1750240855.1621702,1448
1750240855.162243,1143
1750240855.162315,1004
1750240855.1623874,1247
1750240855.16246,1867
1750240855.1625319,2493
1750240855.1626081,2788
1750240855.1626804,2672
1750240855.1627522,2297
1750240855.162824,1864
1750240855.1628964,1501
1750240855.1629717,1189
1750240855.1630468,1012
1750240855.1631193,1199
1750240855.163192,1792
1750240855.1632638,2461
1750240855.1633368,2824
1750240855.1634088,2766
1750240855.1634805,2410
1750240855.1635416,1973
1750240855.1636071,1595
1750240855.1636791,1269
1750240855.1637511,1036
1750240855.1638234,1130
1750240855.1638954,1651
1750240855.1639667,2330
1750240855.164039,2758
1750240855.1641104,2773
1750240855.1641817,2454
1750240855.1642537,2025
1750240855.1643252,1640
1750240855.1643965,1318
1750240855.1644683,1061
1750240855.164543,1091
1750240855.164615,1543
1750240855.164686,2221
