1749979809.4400241,2181
1749979809.5585153,2262
1749979809.5591624,2123
1749979809.5592513,1847
1749979809.559332,1532
1749979809.562244,1264
1749979809.5637739,1072
1749979809.563853,1077
1749979809.5639267,1360
1749979809.5640128,1807
1749979809.5640829,2153
1749979809.564152,2269
1749979809.564222,2153
1749979809.56429,1888
1749979809.5643592,1576
1749979809.5644262,1308
1749979809.5644948,1103
1749979809.5645642,1060
1749979809.5646327,1290
1749979809.5647001,1723
1749979809.5647695,2103
1749979809.5648441,2264
1749979809.5649183,2188
1749979809.5649927,1942
1749979809.5650887,1631
1749979809.565188,1351
1749979809.565388,1133
1749979809.5798683,1052
1749979809.5877972,1237
1749979809.5885196,1654
1749979809.5950944,2065
1749979809.5951955,2267
1749979809.5952752,2226
1749979809.595349,1997
1749979809.595433,1686
1749979809.595506,1395
1749979809.595578,1164
1749979809.59565,1047
1749979809.5957227,1181
1749979809.5957956,1566
1749979809.5958676,1995
1749979809.5959399,2238
1749979809.5960124,2242
1749979809.596086,2045
1749979809.5961583,1749
1749979809.596231,1455
1749979809.596307,1218
1749979809.5963798,1073
1749979809.596453,1156
1749979809.5980153,1500
1749979809.5985448,1935
1749979809.5989892,2215
1749979809.5993445,2264
1749979809.6036959,2098
1749979809.6037717,1810
1749979809.6038396,1502
1749979809.6039066,1251
1749979809.6039734,1087
1749979809.6040401,1134
1749979809.6041064,1448
1749979809.6041694,1887
1749979809.604231,2196
1749979809.604295,2279
1749979809.6137116,2143
1749979809.6140835,1871
1749979809.6163085,1559
1749979809.6163912,1293
1749979809.6164706,1098
1749979809.6165376,1091
1749979809.6166062,1362
1749979809.6166968,1806
1749979809.6167636,2162
1749979809.6168334,2289
1749979809.6168976,2184
1749979809.6170611,1924
1749979809.6363604,1612
1749979809.6364775,1342
1749979809.6374464,1136
1749979809.637523,1085
1749979809.6375923,1301
1749979809.6376643,1725
1749979809.6377354,2107
1749979809.637805,2276
1749979809.6378908,2212
1749979809.6379607,1976
1749979809.638036,1667
1749979809.6381338,1383
1749979809.638208,1159
1749979809.6386359,1068
1749979809.6387858,1237
1749979809.6389225,1641
1749979809.6390593,2051
1749979809.6391947,2263
1749979809.6393397,2243
1749979809.6398723,2034
1749979809.6400146,1730
1749979809.641229,1433
1749979809.6651278,1194
1749979809.6652117,1070
1749979809.6655443,1194
1749979809.6709044,1571
1749979809.6709785,1997
1749979809.671047,2243
1749979809.6711142,2258
1749979809.6711802,2071
1749979809.6712482,1778
1749979809.6713147,1476
1749979809.6713817,1233
1749979809.6714509,1084
1749979809.6715195,1161
1749979809.6715868,1498
1749979809.6716542,1932
1749979809.671754,2218
1749979809.6718266,2277
1749979809.671897,2124
1749979809.6719627,1845
1749979809.6720302,1537
1749979809.6721013,1280
1749979809.6721683,1102
1749979809.6722357,1126
1749979809.6723022,1420
1749979809.6723685,1860
1749979809.6724777,2188
1749979809.6725504,2294
1749979809.6726189,2176
1749979809.672686,1911
1749979809.6727526,1598
1749979809.6728206,1330
1749979809.6728897,1134
1749979809.6729562,1118
1749979809.6730266,1372
1749979809.6730926,1804
1749979809.6731613,2159
1749979809.6732283,2295
1749979809.6732974,2204
1749979809.6733637,1955
1749979809.6734328,1647
1749979809.6734996,1376
1749979809.6735654,1167
1749979809.6736321,1105
1749979809.6737008,1306
1749979809.6737664,1720
1749979809.6738322,2108
1749979809.6739028,2290
1749979809.6739712,2240
1749979809.6740396,2011
1749979809.6741083,1701
1749979809.674174,1412
1749979809.6742387,1185
1749979809.6742976,1084
1749979809.6758847,1237
1749979809.675968,1633
1749979809.6760468,2049
1749979809.6767633,2273
1749979809.6768484,2261
1749979809.6769345,2054
1749979809.6773798,1753
1749979809.6780992,1460
1749979809.6782424,1226
1749979809.678359,1090
1749979809.6784732,1190
1749979809.6785755,1551
1749979809.678956,1984
1749979809.6798017,2247
1749979809.67995,2273
1749979809.6800313,2088
1749979809.680121,1796
1749979809.6801963,1497
1749979809.6802719,1253
1749979809.6803463,1089
1749979809.6804216,1140
1749979809.6804962,1462
1749979809.6805844,1905
1749979809.680659,2208
1749979809.6807337,2276
1749979809.6808093,2124
1749979809.6816707,1849
1749979809.6818995,1545
1749979809.6820002,1291
1749979809.6820674,1107
1749979809.6821368,1117
1749979809.682206,1404
1749979809.6822674,1850
1749979809.6824028,2190
1749979809.6824634,2298
1749979809.6826122,2180
1749979809.6826963,1920
1749979809.682771,1614
1749979809.682847,1347
1749979809.6829176,1142
1749979809.682989,1104
1749979809.683062,1335
1749979809.683132,1760
1749979809.6832032,2126
1749979809.683276,2280
1749979809.683353,2207
1749979809.6834204,1967
1749979809.683491,1656
1749979809.6835706,1371
1749979809.6836407,1154
1749979809.6837149,1084
1749979809.6837933,1276
1749979809.683864,1685
1749979809.6839383,2076
1749979809.6840081,2268
1749979809.6840825,2233
1749979809.6841586,2015
1749979809.684236,1703
1749979809.684306,1402
1749979809.6843758,1168
1749979809.684449,1065
1749979809.6845217,1218
1749979809.6845949,1609
1749979809.6846645,2025
1749979809.684736,2255
1749979809.6848123,2256
1749979809.684885,2061
1749979809.684963,1760
1749979809.6850429,1452
1749979809.6851377,1206
1749979809.685207,1066
1749979809.6852748,1157
1749979809.685348,1497
1749979809.685421,1914
1749979809.6854937,2180
1749979809.6855617,2233
1749979809.685631,2081
1749979809.6857085,1798
1749979809.6857839,1477
1749979809.685859,1209
1749979809.6859288,1043
1749979809.686002,1107
1749979809.6860704,1440
1749979809.6861382,1888
1749979809.6862085,2195
1749979809.6862712,2274
1749979809.686487,2138
1749979809.6865559,1864
1749979809.6866267,1545
1749979809.6866963,1274
1749979809.6867685,1083
1749979809.6868439,1084
1749979809.6869183,1352
1749979809.6869974,1782
1749979809.6870713,2124
1749979809.6871548,2257
1749979809.687226,2168
1749979809.6872973,1916
1749979809.6873686,1592
1749979809.6874473,1305
1749979809.6875193,1096
1749979809.7003424,1056
1749979809.7063017,1276
1749979809.706548,1683
1749979809.7069058,2041
1749979809.7119026,2201
1749979809.7186885,2146
1749979809.7226415,1920
1749979809.7227528,1609
1749979809.7228239,1316
1749979809.722891,1091
1749979809.7229595,1013
1749979809.7230275,1200
1749979809.723094,1614
1749979809.7231596,2023
1749979809.7232325,2229
1749979809.723299,2200
1749979809.7233655,1983
1749979809.7234318,1677
1749979809.7235003,1385
1749979809.7235677,1153
1749979809.7236326,1028
1749979809.7237003,1145
1749979809.7237668,1516
1749979809.7238357,1943
1749979809.723905,2195
1749979809.723971,2214
1749979809.7240367,2028
1749979809.7241018,1737
1749979809.7241702,1441
1749979809.7242358,1202
1749979809.7243018,1049
1749979809.7243683,1118
1749979809.724444,1452
1749979809.7245133,1890
1749979809.7245786,2183
1749979809.7246435,2243
1749979809.7247112,2081
1749979809.7247772,1794
1749979809.7248428,1487
1749979809.7249088,1242
1749979809.7249744,1074
1749979809.7250392,1095
1749979809.7251236,1371
1749979809.7251937,1786
1749979809.7252588,2098
1749979809.7253249,2201
1749979809.7253907,2088
1749979809.7254584,1826
1749979809.7255237,1510
1749979809.72559,1241
1749979809.7256563,1055
1749979809.7257226,1062
1749979809.725788,1347
1749979809.7258534,1805
1749979809.725919,2171
1749979809.725985,2304
1749979809.7260509,2200
1749979809.7261171,1942
1749979809.7261825,1633
1749979809.7262466,1363
1749979809.7263052,1153
1749979809.7263708,1080
1749979809.7264314,1262
1749979809.7264936,1659
1749979809.72656,2038
1749979809.7266262,2225
1749979809.7266936,2189
1749979809.726759,1971
1749979809.7268255,1663
1749979809.726894,1369
1749979809.72696,1138
1749979809.7270262,1047
1749979809.7270906,1225
1749979809.7271566,1646
1749979809.7272239,2072
1749979809.7272897,2286
1749979809.7273548,2256
1749979809.727424,2038
1749979809.7274902,1738
1749979809.7275553,1448
1749979809.7276216,1212
1749979809.7276874,1075
1749979809.7277558,1182
1749979809.7278595,1557
1749979809.7279284,2001
1749979809.727994,2267
1749979809.7280605,2291
1749979809.7281253,2108
1749979809.7281904,1821
1749979809.7282555,1522
1749979809.728321,1267
1749979809.7284076,1090
1749979809.728479,1135
1749979809.7285483,1461
1749979809.730615,1911
1749979809.7306817,2219
1749979809.7307525,2291
1749979809.7308228,2140
1749979809.7308939,1860
1749979809.7309632,1547
1749979809.7310343,1283
1749979809.7311115,1098
1749979809.7311811,1114
1749979809.7312512,1402
1749979809.7313209,1842
1749979809.7313912,2172
1749979809.731461,2276
1749979809.7315307,2155
1749979809.7316003,1887
1749979809.7316706,1570
1749979809.7317865,1301
1749979809.7318568,1108
1749979809.7319272,1084
1749979809.731997,1316
1749979809.732067,1728
1749979809.732137,2080
1749979809.7322063,2235
1749979809.732276,2173
1749979809.7323456,1940
1749979809.732422,1621
1749979809.7324922,1325
1749979809.7325618,1104
1749979809.7326314,1047
1749979809.7327018,1261
1749979809.7327716,1689
1749979809.7328408,2087
1749979809.7329104,2273
1749979809.7331738,2226
1749979809.733251,1997
1749979809.733331,1685
1749979809.733404,1391
1749979809.7334743,1159
1749979809.7335436,1049
1749979809.7336133,1191
1749979809.7336824,1579
1749979809.733752,2002
1749979809.733822,2240
1749979809.7338915,2242
1749979809.7339606,2040
1749979809.7387428,1733
1749979809.7388237,1425
1749979809.738899,1179
1749979809.7389805,1038
1749979809.739056,1136
1749979809.7391295,1496
1749979809.744438,1937
1749979809.7469187,2214
1749979809.7471955,2256
1749979809.7473035,2084
1749979809.7474084,1794
1749979809.7476926,1483
1749979809.7477968,1225
1749979809.7479002,1051
1749979809.748047,1094
1749979809.748152,1412
1749979809.7482562,1857
1749979809.7483597,2171
1749979809.7484744,2253
1749979809.7485778,2108
1749979809.7486815,1826
1749979809.748813,1506
1749979809.748917,1239
1749979809.7490213,1049
1749979809.7491248,1045
1749979809.7492285,1306
1749979809.7493312,1730
1749979809.7494347,2067
1749979809.749538,2192
1749979809.7496407,2093
1749979809.7497437,1837
1749979809.749846,1519
1749979809.7499492,1240
1749979809.7500525,1038
1749979809.7501552,1011
1749979809.7502582,1256
1749979809.7535002,1697
1749979809.7536135,2081
1749979809.7537193,2244
1749979809.7538266,2173
1749979809.7539303,1929
1749979809.7645726,1614
1749979809.7657814,1328
1749979809.829078,1109
1749979809.838596,1030
1749979809.8482227,1213
1749979809.848693,1624
1749979809.84884,2032
1749979809.8489141,2239
1749979809.8492622,2211
1749979809.8493366,1994
1749979809.8501606,1687
1749979809.8508022,1391
1749979809.8508818,1155
1749979809.850955,1034
1749979809.8510318,1162
1749979809.851104,1545
1749979809.8511758,1978
1749979809.8512485,2229
1749979809.8513205,2243
1749979809.851393,2049
1749979809.8514645,1747
1749979809.8515368,1442
1749979809.8516088,1197
1749979809.8516808,1046
1749979809.8517616,1126
1749979809.8518343,1472
1749979809.8519068,1915
1749979809.8519795,2205
1749979809.8520517,2261
1749979809.8521242,2098
1749979809.8521967,1813
1749979809.8522663,1507
1749979809.8523335,1258
1749979809.8524022,1091
1749979809.852473,1131
1749979809.8525455,1441
1749979809.8526175,1888
1749979809.8526895,2210
1749979809.8527613,2300
1749979809.8528335,2167
1749979809.8529053,1898
1749979809.852986,1590
1749979809.8530579,1328
1749979809.8531291,1135
1749979809.8532007,1126
1749979809.8532724,1392
1749979809.853344,1835
1749979809.8534157,2193
1749979809.853487,2323
1749979809.8535588,2220
1749979809.8536305,1962
1749979809.8537023,1645
1749979809.853774,1365
1749979809.8538458,1149
1749979809.8539176,1091
1749979809.8539896,1304
1749979809.854061,1731
1749979809.8541322,2123
1749979809.8542047,2303
1749979809.8542762,2249
1749979809.8543372,2012
1749979809.854405,1693
1749979809.8544772,1398
1749979809.8545487,1173
1749979809.8546207,1087
1749979809.854693,1260
1749979809.8547645,1662
1749979809.8548365,2069
1749979809.8549087,2282
1749979809.8549814,2266
1749979809.8553753,2063
1749979809.8855658,1768
1749979809.9073656,1479
1749979809.9287713,1250
1749979809.9780433,1131
1749979809.9786687,1253
1749979809.9806197,1625
1749979809.9807127,2055
1749979809.9808023,2308
1749979809.9808843,2323
1749979809.9809656,2129
1749979809.9810476,1824
1749979809.9811287,1510
1749979809.98121,1256
1749979809.9812918,1095
1749979809.981373,1164
1749979809.9814553,1506
1749979809.981537,1960
1749979809.9816186,2266
1749979809.9817002,2330
1749979809.9818082,2166
1749979809.9818916,1875
1749979809.9819746,1559
1749979809.9820569,1299
1749979809.9821403,1117
1749979809.982224,1136
1749979809.982307,1434
1749979809.9823897,1888
1749979809.9824727,2229
1749979809.982556,2332
1749979809.9826386,2200
1749979809.982729,1925
1749979809.982813,1616
1749979809.9828959,1357
1749979809.9829786,1160
1749979809.9830613,1131
1749979809.983144,1373
1749979809.9832304,1813
1749979809.9833133,2189
1749979809.983396,2340
1749979809.9834785,2248
1749979809.9835615,1988
1749979809.9836442,1668
1749979809.983737,1386
1749979809.9838214,1168
1749979809.983905,1096
1749979810.0187771,1294
1749979810.0188854,1719
1749979810.0189621,2126
1749979810.0190365,2321
1749979810.01911,2271
1749979810.0191832,2033
1749979810.019256,1712
1749979810.0193298,1413
1749979810.0194025,1177
1749979810.0194712,1067
1749979810.019605,1213
1749979810.0202909,1606
1749979810.020369,2032
1749979810.0204425,2269
1749979810.0205147,2267
1749979810.020643,2060
1749979810.0207214,1753
1749979810.0207944,1457
1749979810.020867,1230
1749979810.0209394,1106
1749979810.021012,1206
1749979810.021085,1555
1749979810.0211568,1983
1749979810.0212293,2262
1749979810.0213013,2318
1749979810.021373,2153
1749979810.021445,1851
1749979810.021508,1524
1749979810.0215802,1261
1749979810.0216532,1101
1749979810.0217385,1167
1749979810.0218115,1498
1749979810.0218828,1941
1749979810.0219529,2246
1749979810.0220299,2319
1749979810.0221014,2168
1749979810.022173,1883
1749979810.0222452,1563
1749979810.0223134,1294
1749979810.0223782,1103
1749979810.0224502,1109
1749979810.022522,1393
1749979810.0225933,1841
1749979810.0226648,2190
1749979810.022736,2310
1749979810.0228083,2198
1749979810.0228803,1934
1749979810.0229518,1618
1749979810.0230236,1343
1749979810.0230956,1134
1749979810.023167,1093
1749979810.0232387,1328
1749979810.0233088,1768
1749979810.0233803,2155
1749979810.023452,2322
1749979810.0235236,2246
1749979810.0235956,1993
1749979810.023667,1671
1749979810.0237372,1385
1749979810.0238087,1170
1749979810.0238805,1101
1749979810.0239522,1295
1749979810.024033,1711
1749979810.0241046,2116
1749979810.024175,2320
1749979810.0242467,2289
1749979810.0243182,2066
1749979810.0243902,1747
1749979810.0244615,1436
1749979810.0245335,1188
1749979810.0246034,1070
1749979810.0246751,1213
1749979810.0247467,1606
1749979810.0248187,2035
1749979810.0248907,2274
1749979810.0249627,2278
1749979810.0250328,2081
1749979810.035323,1781
1749979810.0354047,1475
1749979810.0486207,1227
1749979810.0487015,1083
1749979810.0487802,1180
1749979810.0553114,1543
1749979810.0553892,1986
1749979810.0554721,2262
1749979810.0555449,2303
1749979810.0556448,2133
1749979810.0557384,1847
1749979810.0558116,1539
1749979810.0558841,1280
1749979810.0559564,1103
1749979810.0560284,1143
1749979810.0561264,1463
1749979810.056199,1916
1749979810.0562708,2236
1749979810.0563428,2318
1749979810.0564144,2173
1749979810.056486,1893
1749979810.056584,1576
1749979810.0566556,1307
1749979810.0567274,1108
1749979810.0567987,1099
1749979810.0568705,1370
1749979810.0569608,1819
1749979810.0570388,2179
1749979810.0571103,2310
1749979810.0571818,2205
1749979810.0572531,1942
1749979810.057325,1623
1749979810.0574327,1344
1749979810.0575042,1134
1749979810.0575757,1087
1749979810.0576527,1312
1749979810.0577242,1742
1749979810.0577958,2127
1749979810.057908,2295
1749979810.0579803,2228
1749979810.058052,1985
1749979810.0581284,1670
1749979810.0582004,1383
1749979810.0582714,1163
1749979810.0583353,1083
1749979810.0584064,1266
1749979810.0584738,1680
1749979810.058541,2094
1749979810.0586119,2307
1749979810.058683,2282
1749979810.0587544,2065
1749979810.0588255,1756
1749979810.0588963,1454
1749979810.0589676,1213
1749979810.0590384,1089
1749979810.0591092,1218
1749979810.0591798,1605
1749979810.0592506,2045
1749979810.0593216,2302
1749979810.0593965,2316
1749979810.0594676,2116
1749979810.0595384,1807
1749979810.0596097,1495
1749979810.0596802,1245
1749979810.0597522,1091
1749979810.0598233,1165
1749979810.0598946,1504
1749979810.0599656,1948
1749979810.0774968,2245
1749979810.0786166,2309
1749979810.0795343,2147
1749979810.0796814,1854
1749979810.079764,1535
1749979810.0798738,1275
1749979810.0799553,1099
1749979810.0800369,1130
1749979810.080118,1432
1749979810.0801992,1878
1749979810.0815833,2210
1749979810.081701,2312
1749979810.081825,2183
1749979810.0819473,1908
1749979810.0820553,1591
1749979810.082164,1323
1749979810.0822716,1130
1749979810.082394,1119
1749979810.0825014,1380
1749979810.082609,1823
1749979810.082716,2188
1749979810.089132,2331
1749979810.0892153,2237
1749979810.0892904,1979
1749979810.089364,1655
1749979810.089437,1366
1749979810.0895104,1146
1749979810.0895832,1085
1749979810.0896559,1296
1749979810.089729,1723
1749979810.0898015,2117
1749979810.0898747,2299
1749979810.0899477,2244
1749979810.0900211,2008
1749979810.0900936,1693
1749979810.0901663,1401
1749979810.090239,1175
1749979810.0903115,1082
1749979810.0903845,1247
1749979810.0904572,1650
1749979810.0905302,2070
1749979810.0906034,2297
1749979810.0906763,2287
1749979810.0907488,2075
1749979810.0908217,1761
1749979810.090895,1453
1749979810.0909681,1212
1749979810.1345341,1087
1749979810.1430182,1209
1749979810.1431825,1584
1749979810.1433072,2017
1749979810.1450887,2275
1749979810.163529,2299
1749979810.1636243,2116
1749979810.1636963,1819
1749979810.163777,1508
1749979810.163856,1251
1749979810.1639357,1086
1749979810.164015,1150
1749979810.1640935,1484
1749979810.1641755,1928
1749979810.1673353,2228
1749979810.2005858,2298
1749979810.2079325,2150
1749979810.208106,1870
1749979810.209496,1553
1749979810.214966,1282
1749979810.2162583,1093
1749979810.2169647,1114
1749979810.2170477,1413
1749979810.2222404,1861
1749979810.2489645,2194
1749979810.2912862,2298
1749979810.291422,2177
1749979810.2915704,1913
1749979810.291691,1601
1749979810.302838,1332
1749979810.3042796,1133
1749979810.3043709,1109
1749979810.30445,1354
1749979810.3045242,1785
1749979810.331545,2153
1749979810.3437212,2306
1749979810.3785155,2227
1749979810.3865767,1978
1749979810.3882704,1654
1749979810.389114,1363
1749979810.4000018,1145
1749979810.4001353,1084
1749979810.4002147,1292
1749979810.4002953,1716
1749979810.400374,2114
1749979810.400453,2302
1749979810.4005313,2254
1749979810.4006128,2023
1749979810.4006934,1707
1749979810.400772,1409
1749979810.400851,1174
1749979810.4009292,1061
1749979810.4010074,1205
1749979810.4010856,1596
1749979810.4011636,2019
1749979810.4012415,2254
1749979810.4013214,2252
1749979810.4014049,2049
1749979810.401511,1747
1749979810.4015937,1449
1749979810.4016721,1212
1749979810.4017823,1075
1749979810.4018645,1175
1749979810.4019427,1535
1749979810.4020224,1975
1749979810.402103,2249
1749979810.402183,2286
1749979810.4022624,2106
1749979810.4023411,1810
1749979810.4024224,1500
1749979810.4129813,1250
1749979810.419408,1089
1749979810.4202054,1147
1749979810.4364202,1479
1749979810.4365306,1933
1749979810.4366357,2247
1749979810.4367397,2321
1749979810.4368582,2168
1749979810.4369636,1886
1749979810.4370677,1575
1749979810.4371712,1313
1749979810.4372747,1118
1749979810.4373775,1111
1749979810.4374812,1385
1749979810.4421177,1833
1749979810.475211,2190
1749979810.4819095,2316
1749979810.481995,2204
1749979810.482074,1936
1749979810.4821455,1618
1749979810.4822137,1344
1749979810.4822748,1138
1749979810.482343,1097
1749979810.4824073,1331
1749979810.48247,1772
1749979810.4825408,2161
1749979810.482615,2325
1749979810.4826853,2245
1749979810.4827583,1993
1749979810.4828315,1678
1749979810.4829047,1398
1749979810.4829755,1180
1749979810.4830444,1096
1749979810.4831142,1277
1749979810.483194,1695
1749979810.4832678,2113
1749979810.4833388,2324
1749979810.4834068,2285
1749979810.4834793,2046
1749979810.4835577,1722
1749979810.4836268,1423
1749979810.4836998,1193
1749979810.4837704,1075
1749979810.4838455,1195
1749979810.4839187,1559
1749979810.483989,1973
1749979810.484067,2221
1749979810.4841392,2243
1749979810.4842129,2054
1749979810.4842832,1746
1749979810.484354,1431
1749979810.484425,1186
1749979810.4844925,1056
1749979810.484561,1162
1749979810.4846356,1521
1749979810.4847035,1959
1749979810.4851453,2241
1749979810.5722775,2295
1749979810.5963333,2133
1749979810.596422,1838
1749979810.606119,1514
1749979810.6069777,1252
1749979810.6070578,1087
1749979810.6071296,1138
1749979810.6072013,1450
1749979810.614583,1883
1749979810.6146982,2192
1749979810.6147795,2282
1749979810.6148531,2156
1749979810.6149347,1888
1749979810.6150312,1571
1749979810.6151187,1297
1749979810.6151886,1098
1749979810.6152573,1088
1749979810.615326,1348
1749979810.6153913,1778
1749979810.6154578,2127
1749979810.6155262,2264
1749979810.6155941,2178
1749979810.615662,1927
1749979810.6158798,1605
1749979810.61613,1318
1749979810.6161942,1109
1749979810.61626,1074
1749979810.616326,1312
1749979810.6163924,1750
1749979810.6164594,2136
1749979810.6165264,2306
1749979810.6165931,2245
1749979810.616659,2010
1749979810.6167245,1697
1749979810.6167908,1405
1749979810.616858,1177
1749979810.616924,1087
1749979810.6169913,1258
1749979810.6170578,1660
1749979810.617123,2069
1749979810.617188,2283
1749979810.6172543,2268
1749979810.6173198,2061
1749979810.6173866,1758
1749979810.6174521,1458
1749979810.617519,1217
1749979810.61759,1089
1749979810.6176565,1210
1749979810.6177325,1585
1749979810.6177988,2015
1749979810.6178656,2268
1749979810.61793,2287
1749979810.6179967,2100
1749979810.6180634,1801
1749979810.6181302,1490
1749979810.618197,1237
1749979810.6182578,1080
1749979810.6183171,1155
1749979810.6183786,1499
1749979810.6184497,1944
1749979810.618516,2236
1749979810.6185822,2293
1749979810.6186507,2133
1749979810.6388113,1851
1749979810.6417837,1545
1749979810.6421623,1291
1749979810.6425195,1112
1749979810.6428528,1134
1749979810.643186,1428
1749979810.6491485,1873
1749979810.649528,2205
1749979810.6499164,2306
1749979810.650282,2178
1749979810.65063,1906
1749979810.6509979,1592
1749979810.6513653,1324
1749979810.6517549,1123
1749979810.6521237,1099
1749979810.6524904,1349
1749979810.6528568,1790
1749979810.6532223,2159
1749979810.655564,2301
1749979810.6559563,2204
1749979810.6563342,1945
1749979810.6567092,1628
1749979810.6570823,1350
1749979810.6574507,1136
1749979810.6578188,1068
1749979810.6649046,1266
1749979810.6653228,1684
1749979810.6656978,2081
1749979810.666068,2272
1749979810.6664226,2226
1749979810.6668067,1996
1749979810.66719,1685
1749979810.7189941,1398
1749979810.7974317,1175
1749979810.8052785,1076
1749979810.8053606,1230
1749979810.8378398,1625
1749979810.8379228,2044
1749979810.8379967,2273
1749979810.8499937,2267
1749979810.8503602,2061
1749979810.8506892,1756
1749979810.91147,1456
1749979810.9188733,1219
1749979810.9192836,1088
1749979810.919688,1197
1749979810.920053,1564
1749979810.9204237,2001
1749979810.9207904,2267
1749979810.9211583,2296
1749979810.9215198,2109
1749979810.9390278,1807
1749979810.9541266,1497
1749979810.9744859,1248
1749979811.0460129,1089
1749979811.0465622,1149
1749979811.0466704,1477
1749979811.0471177,1922
1749979811.0479333,2228
1749979811.048041,2302
1749979811.0482395,2153
1749979811.0484917,1870
1749979811.0487766,1555
1749979811.0526226,1292
1749979811.0527458,1109
1749979811.0528505,1128
1749979811.0529544,1423
1749979811.0530584,1874
1749979811.0531719,2216
1749979811.0713282,2324
1749979811.103299,2202
1749979811.1053038,1934
1749979811.1054149,1618
1749979811.105519,1341
1749979811.105623,1127
1749979811.105727,1084
1749979811.105838,1320
1749979811.1059422,1759
1749979811.1060457,2141
1749979811.1061482,2300
1749979811.1062512,2220
1749979811.1064248,1969
1749979811.106655,1651
1749979811.106758,1366
1749979811.1068609,1146
1749979811.1069634,1074
1749979811.1092017,1269
1749979811.109297,1688
1749979811.109374,2090
1749979811.1094496,2284
1749979811.109525,2243
1749979811.1096005,2019
1749979811.1096761,1709
1749979811.109751,1413
1749979811.1098256,1178
1749979811.1099005,1067
1749979811.1099753,1213
1749979811.11005,1608
1749979811.1101246,2036
1749979811.1101992,2276
1749979811.1102755,2277
1749979811.1103356,2076
1749979811.1104076,1771
1749979811.110473,1464
1749979811.1105413,1217
1749979811.1106162,1077
1749979811.110691,1177
1749979811.1107652,1539
1749979811.1108413,1980
1749979811.1109197,2256
1749979811.1109974,2298
1749979811.1110754,2127
1749979811.1111562,1838
1749979811.111234,1524
1749979811.111312,1262
1749979811.1113894,1091
1749979811.1114647,1143
1749979811.1115427,1473
1749979811.11162,1927
1749979811.1116974,2242
1749979811.1134918,2322
1749979811.1135762,2179
1749979811.1136558,1904
1749979811.113736,1591
1749979811.1138158,1324
1749979811.1138957,1127
1749979811.1139758,1118
1749979811.114054,1381
1749979811.1141312,1812
1749979811.1142082,2160
1749979811.1142855,2292
1749979811.1143477,2194
1749979811.1144185,1933
1749979811.114483,1605
1749979811.1145432,1322
1749979811.1146207,1123
1749979811.1146977,1098
1749979811.114775,1333
1749979811.1148524,1753
1749979811.1149304,2119
1749979811.1150074,2282
1749979811.1151006,2224
1749979811.115179,1990
1749979811.115257,1668
1749979811.115335,1367
1749979811.1154127,1138
1749979811.1154902,1064
1749979811.1155677,1261
1749979811.1156456,1683
1749979811.1157236,2096
1749979811.115801,2303
1749979811.1158783,2273
1749979811.1159565,2051
1749979811.116034,1738
1749979811.1161113,1437
1749979811.1987185,1197
1749979811.2260082,1075
1749979811.2261233,1204
1749979811.2262084,1589
1749979811.2262928,2027
1749979811.2263572,2285
1749979811.2264411,2302
1749979811.2265248,2104
1749979811.226608,1797
1749979811.226691,1488
1749979811.226795,1243
1749979811.226879,1093
1749979811.2269623,1163
1749979811.2270463,1490
1749979811.227132,1917
1749979811.2275243,2205
1749979811.2276092,2270
1749979811.2276943,2115
1749979811.2277796,1824
1749979811.2278593,1500
1749979811.2279384,1236
1749979811.2280393,1066
1749979811.2281423,1116
1749979811.2282429,1441
1749979811.2283442,1901
1749979811.234072,2231
1749979811.2342281,2321
1749979811.2343228,2180
1749979811.2344036,1899
1749979811.2345083,1582
1749979811.234603,1316
1749979811.234707,1119
1749979811.2348096,1102
1749979811.2349284,1359
1749979811.2350383,1801
1749979811.235151,2168
1749979811.2361472,2313
1749979811.2362564,2219
1749979811.2363424,1959
1749979811.2364275,1638
1749979811.2365122,1353
1749979811.2365968,1135
1749979811.2366962,1075
1749979811.2367823,1286
1749979811.236868,1712
1749979811.2369578,2106
1749979811.2370374,2289
1749979811.237136,2236
1749979811.237219,2002
1749979811.2373035,1688
1749979811.2373886,1397
1749979811.2374732,1169
1749979811.2375712,1073
1749979811.2376556,1235
1749979811.2377396,1632
1749979811.237824,2041
1749979811.2379096,2256
1749979811.2767491,2238
1749979811.2778952,2028
1749979811.2869534,1724
1749979811.2870703,1425
1749979811.2871463,1184
1749979811.2872202,1053
1749979811.2872941,1170
1749979811.2873669,1547
1749979811.2874403,1984
1749979811.2875142,2243
1749979811.2876046,2265
1749979811.2876797,2078
1749979811.341361,1783
1749979811.417918,1479
1749979811.4187424,1233
1749979811.4188197,1078
1749979811.4208636,1147
1749979811.4209454,1482
1749979811.4210186,1921
1749979811.4210918,2214
1749979811.4217935,2276
1749979811.4218738,2124
1749979811.4221315,1846
1749979811.4222066,1536
1749979811.4222782,1275
1749979811.4394987,1092
1749979811.4396675,1114
1749979811.441408,1412
1749979811.4415488,1858
1749979811.4416606,2188
1749979811.4417994,2288
1749979811.4419081,2164
1749979811.442017,1899
1749979811.4421253,1588
1749979811.442233,1318
1749979811.442341,1115
1749979811.442449,1089
1749979811.4425406,1339
1749979811.4426153,1778
1749979811.4426892,2146
1749979811.4427843,2293
1749979811.4428587,2209
1749979811.442933,1965
1749979811.4430072,1657
1749979811.4430814,1381
1749979811.4431696,1168
1749979811.4432445,1102
1749979811.4433181,1303
1749979811.4434,1720
1749979811.4434738,2112
1749979811.4435475,2295
1749979811.4436357,2246
1749979811.4437096,2018
1749979811.4437845,1710
1749979811.4438584,1420
1749979811.4439325,1191
1749979811.444006,1087
1749979811.4442244,1241
1749979811.4443033,1638
1749979811.4443805,2060
1749979811.4444613,2287
1749979811.4450383,2276
1749979811.4451377,2066
1749979811.4464731,1762
1749979811.4476907,1464
1749979811.4477732,1229
1749979811.4478505,1096
1749979811.4479272,1198
1749979811.4480264,1560
1749979811.4481096,1998
1749979811.4481866,2272
1749979811.448263,2308
1749979811.448339,2125
1749979811.4484339,1824
1749979811.4485366,1510
1749979811.4486127,1256
1749979811.4486878,1092
1749979811.4488902,1146
1749979811.4492323,1468
1749979811.4493432,1914
1749979811.4494448,2226
1749979811.4495466,2303
1749979811.45058,2155
1749979811.4506917,1873
1749979811.4507902,1560
1749979811.450895,1300
1749979811.45099,1112
1749979811.4510856,1113
1749979811.45118,1388
1749979811.4513702,1832
1749979811.4529924,2186
1749979811.4531856,2314
1749979811.4533622,2205
1749979811.4540827,1937
1749979811.4541655,1617
1749979811.4542398,1345
1749979811.454312,1144
1749979811.4543848,1106
1749979811.4544528,1333
1749979811.4545586,1757
1749979811.454631,2133
1749979811.4547024,2297
1749979811.4547737,2228
1749979811.4548454,1986
1749979811.4549174,1674
1749979811.4549885,1395
1749979811.455073,1181
1749979811.4551494,1105
1749979811.4552207,1288
1749979811.4552915,1698
1749979811.455362,2101
1749979811.4554331,2300
1749979811.4555044,2262
1749979811.4555752,2036
1749979811.455646,1725
1749979811.4557168,1434
1749979811.4557874,1206
1749979811.4558587,1092
1749979811.4559295,1226
1749979811.4563575,1608
1749979811.4565449,2031
1749979811.456636,2272
1749979811.4572322,2276
1749979811.4574122,2078
1749979811.4575598,1778
1749979811.4576995,1477
1749979811.4578285,1235
1749979811.466113,1090
1749979811.4709108,1175
1749979811.4710426,1523
1749979811.471147,1960
1749979811.4712505,2241
1749979811.4713535,2291
1749979811.4714563,2124
1749979811.4715588,1834
1749979811.4716609,1522
1749979811.477034,1265
1749979811.4771452,1093
1749979811.4772496,1133
1749979811.4773533,1442
1749979811.477457,1884
1749979811.4775608,2201
1749979811.4776642,2291
1749979811.4777672,2160
1749979811.4778697,1890
1749979811.477973,1578
1749979811.4780757,1313
1749979811.478178,1118
1749979811.4815106,1108
1749979811.5163417,1369
1749979811.5597236,1804
1749979811.5740647,2156
1749979811.5744224,2288
1749979811.5747068,2191
1749979811.5750859,1937
1749979811.5754588,1622
1749979811.576096,1342
1749979811.5764627,1128
1749979811.5768294,1076
1749979811.577195,1297
1749979811.5775714,1726
1749979811.577936,2112
1749979811.5782607,2281
1749979811.5786028,2218
1749979811.5789328,1984
1749979811.6022944,1678
1749979811.6621115,1396
1749979811.6623392,1172
1749979811.6624074,1080
1749979811.6624732,1249
1749979811.662541,1654
1749979811.662609,2065
1749979811.6626763,2276
1749979811.662742,2252
1749979811.6628084,2039
1749979811.6628747,1739
1749979811.662942,1449
1749979811.663008,1217
1749979811.663074,1093
1749979811.663141,1217
1749979811.6632066,1596
1749979811.6632724,2030
1749979811.6633387,2284
1749979811.6634042,2299
1749979811.6634705,2108
1749979811.6635432,1810
1749979811.663609,1505
1749979811.663675,1259
1749979811.6637406,1106
1749979811.663807,1180
1749979811.6638727,1519
1749979811.6639388,1961
1749979811.664004,2253
1749979811.66407,2312
1749979811.6641362,2152
1749979811.6642017,1864
1749979811.6642675,1550
1749979811.6643333,1291
1749979811.6644003,1114
1749979811.6644676,1140
1749979811.6645322,1439
1749979811.6645982,1884
1749979811.664664,2217
1749979811.6647294,2324
1749979811.6647954,2203
1749979811.664861,1931
1749979811.6649263,1611
1749979811.6649928,1336
1749979811.6650686,1135
1749979811.6651356,1115
1749979811.6652007,1369
1749979811.6652656,1808
1749979811.6653314,2174
1749979811.6653965,2317
1749979811.6654615,2225
1749979811.66553,1971
1749979811.6655953,1654
1749979811.6656604,1371
1749979811.6657255,1151
1749979811.6657908,1082
1749979811.6658566,1283
1749979811.6659222,1709
1749979811.6659884,2112
1749979811.6660535,2302
1749979811.6661186,2250
1749979811.666184,2013
1749979811.6662443,1701
1749979811.6663084,1416
1749979811.666373,1191
1749979811.6664352,1086
1749979811.6665006,1233
1749979811.6665654,1624
1749979811.6666307,2043
1749979811.6666963,2272
1749979811.6667626,2261
1749979811.6668284,2050
1749979811.666889,1744
1749979811.6669583,1448
1749979811.667029,1213
1749979811.6670995,1078
1749979811.6671703,1178
1749979811.6672409,1538
1749979811.6673138,1975
1749979811.6673853,2247
1749979811.6674664,2280
1749979811.667531,2096
1749979811.6675966,1795
1749979811.667662,1485
1749979811.667727,1238
1749979811.667792,1082
1749979811.6678572,1143
1749979811.667922,1467
1749979811.6679869,1907
1749979811.6680517,2213
1749979811.6681168,2291
1749979811.6681821,2143
1749979811.6682475,1856
1749979811.6683128,1534
1749979811.6683779,1271
1749979811.6684484,1092
1749979811.6685138,1106
1749979811.6687493,1380
1749979811.6688144,1805
1749979811.6688802,2137
1749979811.6689456,2258
1749979811.669011,2155
1749979811.6690772,1890
1749979811.669142,1562
1749979811.6692073,1279
1749979811.6692727,1082
1749979811.6693377,1070
1749979811.6694028,1329
1749979811.6694732,1771
1749979811.6695387,2144
1749979811.6759894,2298
1749979811.6882915,2220
1749979811.68837,1971
1749979811.6915474,1651
1749979811.708519,1363
1749979811.7104785,1146
1749979811.7182207,1078
1749979811.7189243,1275
1749979811.7192688,1693
1749979811.7196352,2099
1749979811.7203696,2302
1749979811.7275066,2268
1749979811.7276046,2041
1749979811.7317383,1720
1749979811.7318869,1417
1749979811.7319589,1184
1749979811.7320287,1075
1749979811.732098,1208
1749979811.7321656,1574
1749979811.7322333,1977
1749979811.7322993,2214
1749979811.732373,2235
1749979811.732442,2050
1749979811.7325087,1744
1749979811.7325776,1425
1749979811.7326472,1175
1749979811.7327142,1044
1749979811.7327833,1156
1749979811.7328503,1519
1749979811.7329195,1952
1749979811.7329865,2220
1749979811.7330556,2260
1749979811.7331274,2091
1749979811.733195,1802
1749979811.7332618,1492
1749979811.7333283,1239
1749979811.7333972,1076
1749979811.7334642,1131
1749979811.733532,1458
1749979811.7335985,1910
1749979811.7336652,2226
1749979811.7337315,2306
1749979811.7338004,2159
1749979811.7338681,1880
1749979811.7339346,1568
1749979811.7340014,1304
1749979811.73407,1109
1749979811.734137,1100
1749979811.734203,1367
1749979811.7342627,1811
1749979811.7343318,2167
1749979811.734393,2299
1749979811.7344558,2197
1749979811.7345216,1939
1749979811.7345903,1625
1749979811.7346573,1349
1749979811.734724,1138
1749979811.734792,1090
1749979811.734862,1314
1749979811.7349336,1746
1749979811.7349992,2133
1749979811.7814476,2303
1749979811.8273091,2237
1749979811.8276947,1995
1749979811.833386,1680
1749979811.8334692,1392
1749979811.833548,1169
1749979811.86191,1083
1749979811.861991,1259
1749979811.8620636,1667
1749979811.862138,2074
1749979811.8622048,2282
1749979811.8622646,2255
1749979811.862332,2040
1749979811.8623936,1738
1749979811.862456,1447
1749979811.8625236,1215
1749979811.8625906,1093
1749979811.8626573,1216
1749979811.8627238,1591
1749979811.8627932,2017
1749979811.8628597,2265
1749979811.862928,2276
1749979811.862995,2081
1749979811.8630633,1781
1749979811.8631294,1477
1749979811.8631964,1232
1749979811.8632627,1081
1749979811.8633316,1159
1749979811.8633978,1502
1749979811.8634646,1943
1749979811.863532,2230
1749979811.8635979,2282
1749979811.8636687,2118
1749979811.8637352,1835
1749979811.863802,1529
1749979811.8638706,1275
1749979811.8639388,1098
1749979811.8640041,1126
1749979811.8640718,1430
1749979811.8641407,1879
1749979811.8642092,2206
1749979811.8642752,2299
1749979811.8643415,2163
1749979811.8644068,1889
1749979811.8644736,1579
1749979811.8645394,1316
1749979811.8646047,1120
1749979811.864671,1101
1749979811.864738,1356
1749979811.8648038,1796
1749979811.8648705,2156
1749979811.864937,2290
1749979811.8650022,2190
1749979811.865088,1934
1749979811.8651574,1622
1749979811.8652232,1346
1749979811.8652902,1130
1749979811.865358,1065
1749979811.8654249,1273
1749979811.8654912,1700
1749979811.8655596,2094
1749979811.8656256,2271
1749979811.8656924,2209
1749979811.8657618,1974
1749979811.8658285,1668
1749979811.8658946,1388
1749979811.865961,1164
1749979811.8660357,1062
1749979811.8661027,1218
1749979811.8661716,1617
1749979811.908753,2035
1749979811.9091792,2255
1749979811.9100835,2235
1749979811.943405,2020
1749979811.9546587,1716
1749979811.9619453,1424
1749979811.9688137,1193
1749979811.9691887,1066
1749979811.96954,1180
1749979811.9698796,1554
1749979811.9702144,1992
1749979811.9705646,2256
1749979811.9709344,2282
1749979811.971308,2098
1749979811.9716794,1806
1749979811.9720852,1504
1749979811.9724736,1257
1749979811.972848,1097
1749979811.9732246,1159
1749979811.9735959,1490
1749979811.9739678,1931
1749979811.9744086,2225
1749979811.974782,2285
1749979811.9751742,2128
1749979811.9755406,1848
1749979811.9759073,1542
1749979812.0286498,1283
1749979812.0943549,1096
1749979812.1373599,1107
1749979812.1374917,1397
1749979812.138104,1845
1749979812.138214,2183
1749979812.138861,2288
1749979812.1390092,2161
1749979812.1391165,1891
1749979812.1395779,1581
1749979812.1396625,1319
1749979812.1397338,1123
1749979812.1398008,1092
1749979812.1398752,1328
1749979812.1399434,1755
1749979812.1400108,2120
1749979812.1400778,2271
1749979812.140146,2191
1749979812.1402154,1945
1749979812.1402874,1632
1749979812.1403577,1351
1749979812.1404252,1135
1749979812.140494,1066
1749979812.1405609,1263
1749979812.140627,1680
1749979812.1406937,2076
1749979812.14076,2265
1749979812.1408267,2220
1749979812.1452973,1994
1749979812.1692228,1687
1749979812.1939573,1398
1749979812.1940408,1168
1749979812.194117,1058
1749979812.1941988,1202
1749979812.1942756,1591
1749979812.1943622,2009
1749979812.1944249,2236
1749979812.194492,2228
1749979812.1945598,2025
1749979812.1946268,1729
1749979812.1946983,1437
1749979812.19477,1202
1749979812.1948414,1060
1749979812.1949139,1152
1749979812.1949859,1506
1749979812.1950817,1944
1749979812.1951568,2220
1749979812.1952293,2259
1749979812.1953013,2081
1749979812.1953728,1788
1749979812.195446,1481
1749979812.1955173,1233
1749979812.1955886,1069
1749979812.19566,1117
1749979812.1957328,1434
1749979812.195804,1877
1749979812.1958756,2188
1749979812.195947,2267
1749979812.1960194,2123
1749979812.196091,1846
1749979812.1961622,1536
1749979812.1962337,1277
1749979812.1963143,1090
1749979812.196386,1091
1749979812.1964574,1366
1749979812.1965287,1809
1749979812.1965997,2157
1749979812.1966715,2279
1749979812.1967437,2171
1749979812.1968145,1911
1749979812.196886,1600
1749979812.1969573,1327
1749979812.1970289,1118
1749979812.1971004,1075
1749979812.197172,1305
1749979812.1972442,1740
1749979812.1973162,2121
1749979812.1973882,2279
1749979812.1974607,2200
1749979812.1975338,1953
1749979812.1976066,1643
1749979812.1976802,1364
1749979812.1977527,1147
1749979812.1978252,1064
1749979812.197898,1246
1749979812.1979792,1664
1749979812.1980522,2082
1749979812.198125,2296
1749979812.198198,2265
1749979812.198271,2039
1749979812.217796,1724
1749979812.217957,1428
1749979812.2785127,1198
1749979812.2793698,1081
1749979812.2863083,1210
1749979812.2863934,1585
1749979812.292509,2008
1749979812.2928092,2255
1749979812.2928987,2269
1749979812.2929842,2077
1749979812.2930691,1777
1749979812.2931595,1471
1749979812.2932444,1226
1749979812.2933295,1080
1749979812.293414,1164
1749979812.2934992,1513
1749979812.2935827,1953
1749979812.293667,2236
1749979812.2937555,2283
1749979812.29384,2111
1749979812.2939246,1819
1749979812.2940118,1508
1749979812.2940965,1254
1749979812.2941802,1082
1749979812.2942557,1118
1749979812.2943294,1423
1749979812.2943919,1866
1749979812.2944584,2188
1749979812.294531,2280
1749979812.2946022,2145
1749979812.2946763,1867
1749979812.294746,1548
1749979812.2948158,1282
1749979812.2948852,1091
1749979812.294953,1080
1749979812.2950232,1330
1749979812.2951071,1749
1749979812.2951815,2091
1749979812.295256,2226
1749979812.295331,2141
1749979812.295405,1895
1749979812.2954783,1577
1749979812.2955515,1293
1749979812.2956262,1084
1749979812.2957006,1049
1749979812.2957747,1288
1749979812.2958496,1729
1749979812.3076825,2118
1749979812.3077676,2286
1749979812.308102,2219
1749979812.308196,1978
1749979812.3082693,1661
1749979812.3083417,1367
1749979812.308435,1138
1749979812.3085082,1047
1749979812.3091886,1219
1749979812.309273,1628
1749979812.3093483,2044
1749979812.3094225,2265
1749979812.309496,2250
1749979812.30957,2039
1749979812.309643,1730
1749979812.3097157,1427
1749979812.3097885,1188
1749979812.3098617,1063
1749979812.3099344,1178
1749979812.3100069,1538
1749979812.3100798,1954
1749979812.3101525,2205
1749979812.3102245,2236
1749979812.310291,2061
1749979812.3103514,1763
1749979812.3104208,1441
1749979812.3104799,1180
1749979812.3105485,1032
1749979812.31062,1126
1749979812.3106928,1485
1749979812.3107648,1937
1749979812.3108373,2233
1749979812.3109095,2295
1749979812.3393414,2136
1749979812.3660786,1848
1749979812.366191,1529
1749979812.3705437,1265
1749979812.3787377,1084
1749979812.3788192,1104
1749979812.3791487,1388
1749979812.3792267,1816
1749979812.3793004,2139
1749979812.3793724,2249
1749979812.3794446,2137
1749979812.379516,1872
1749979812.3795874,1549
1749979812.3796587,1270
1749979812.3797305,1071
1749979812.3890219,1064
1749979812.4159787,1334
1749979812.4160612,1785
1749979812.4161344,2155
1749979812.423206,2298
1749979812.4788795,2208
1749979812.5163627,1955
1749979812.5468848,1639
1749979812.5469677,1354
1749979812.5470426,1132
1749979812.547116,1063
1749979812.547189,1265
1749979812.5472617,1689
1749979812.5473347,2091
1749979812.5474076,2285
1749979812.5474806,2241
1749979812.5475535,2010
1749979812.547626,1696
1749979812.547701,1406
1749979812.5477755,1187
1749979812.5478475,1092
1749979812.5479207,1241
1749979812.5479932,1618
1749979812.548066,2018
1749979812.5481389,2245
1749979812.548214,2254
1749979812.5483024,2063
1749979812.5483792,1754
1749979812.5484762,1437
1749979812.5485518,1190
1749979812.5486276,1072
1749979812.5487034,1206
1749979812.548779,1588
1749979812.5488546,2024
1749979812.5489304,2284
1749979812.5490055,2314
1749979812.5490808,2133
1749979812.5491564,1833
1749979812.5492313,1515
1749979812.5493064,1259
1749979812.549382,1098
1749979812.549457,1156
1749979812.5495327,1473
1749979812.5496078,1902
1749979812.5496829,2203
1749979812.5497582,2286
1749979812.549835,2147
1749979812.5499103,1862
1749979812.549986,1531
1749979812.550061,1252
1749979812.550148,1066
1749979812.5502236,1091
1749979812.5502987,1392
1749979812.565791,1846
1749979812.6012368,2191
1749979812.659673,2306
1749979812.6597695,2191
1749979812.6601381,1926
1749979812.6736093,1608
1749979812.680056,1333
1749979812.6801915,1127
1749979812.701706,1092
1749979812.7064064,1330
1749979812.7290316,1766
1749979812.7293706,2145
1749979812.7297034,2307
1749979812.7300334,2234
1749979812.7305512,1986
1749979812.7308824,1664
1749979812.7312331,1368
1749979812.7315607,1139
1749979812.76787,1061
1749979812.8123567,1255
1749979812.8135793,1678
1749979812.8137066,2085
1749979812.8156533,2283
1749979812.815793,2241
1749979812.815898,2013
1749979812.8160012,1701
1749979812.8172944,1404
1749979812.818535,1169
1749979812.8186133,1056
1749979812.8186898,1200
1749979812.818766,1594
1749979812.818842,2022
1749979812.8189173,2260
1749979812.818993,2261
1749979812.8190684,2060
1749979812.8191438,1760
1749979812.819219,1459
1749979812.819295,1215
1749979812.8193705,1067
1749979812.8194551,1156
1749979812.8195307,1511
1749979812.8196058,1953
1749979812.819681,2232
1749979812.8197558,2274
1749979812.819831,2099
1749979812.8199055,1805
1749979812.8199806,1494
1749979812.8200548,1237
1749979812.8201299,1065
1749979812.8202047,1109
1749979812.8202803,1430
1749979812.8203554,1883
1749979812.8204305,2202
1749979812.8205056,2284
1749979812.820581,2138
1749979812.8206558,1859
1749979812.835586,1550
1749979812.8356867,1289
1749979812.8357782,1096
1749979812.8358684,1088
1749979812.8359592,1357
1749979812.8360503,1804
1749979812.83614,2163
1749979812.8362305,2292
1749979812.8363209,2185
1749979812.8364112,1922
1749979812.8365006,1609
1749979812.8365905,1337
1749979812.8366802,1128
1749979812.8367696,1077
1749979812.8368595,1299
1749979812.8369496,1733
1749979812.8370397,2124
1749979812.8371081,2297
1749979812.837196,2230
1749979812.8372707,1987
1749979812.8373442,1673
1749979812.8374178,1389
1749979812.8374913,1168
1749979812.8375647,1081
1749979812.8376381,1255
1749979812.8377116,1662
1749979812.8377848,2071
1749979812.8378582,2281
1749979812.8379316,2255
1749979812.8380058,2037
1749979812.8380797,1730
1749979812.8381534,1436
1749979812.8382275,1204
1749979812.8383007,1084
1749979812.8383741,1210
1749979812.84823,1586
1749979812.8587906,2013
1749979812.8591933,2263
1749979812.8592832,2278
1749979812.8593595,2087
1749979812.8594332,1789
1749979812.8595066,1485
1749979812.859579,1239
1749979812.8596525,1087
1749979812.859727,1163
1749979812.8598003,1505
1749979812.8598738,1946
1749979812.859947,2234
1749979812.8602083,2285
1749979812.860281,2117
1749979812.8603497,1829
1749979812.8604228,1522
1749979812.8604956,1272
1749979812.8605688,1100
1749979812.860642,1131
1749979812.860725,1434
1749979812.860798,1880
1749979812.860871,2211
1749979812.860944,2310
1749979812.8610165,2179
1749979812.86109,1904
1749979812.8611634,1588
1749979812.8612366,1320
1749979812.8613098,1122
1749979812.861383,1103
1749979812.8614562,1358
1749979812.8615315,1798
1749979812.8616073,2162
1749979812.8616846,2302
1749979812.8617735,2209
1749979812.8618474,1954
1749979812.8619208,1641
1749979812.8619945,1366
1749979812.8620677,1155
1749979812.8621411,1096
1749979812.8622143,1307
1749979812.8622813,1733
1749979812.8623462,2129
1749979812.8624196,2311
1749979812.8624926,2253
1749979812.862566,2015
1749979812.8626385,1704
1749979812.862721,1419
1749979812.8627932,1195
1749979812.8628664,1097
1749979812.8629396,1255
1749979812.8630123,1653
1749979812.863085,2070
1749979812.8631582,2290
1749979812.8632312,2271
1749979812.8633044,2056
1749979812.863377,1749
1749979812.8634503,1451
1749979812.863523,1213
1749979812.863596,1080
1749979812.863669,1190
1749979812.8637419,1562
1749979812.8638148,2002
1749979812.8638878,2265
1749979812.8639605,2289
1749979812.8640335,2103
1749979812.8641062,1812
1749979812.864179,1514
1749979812.864256,1269
1749979812.8643289,1107
1749979812.8644025,1164
1749979812.8644755,1493
1749979812.898578,1936
1749979812.9003212,2235
1749979812.900431,2297
1749979812.9013722,2140
1749979812.9015074,1860
1749979812.9016132,1556
1749979812.901728,1301
1749979812.9018335,1118
1749979812.9019372,1131
1749979812.9052033,1420
1749979812.9056966,1866
1749979812.9057791,2205
1749979812.905858,2312
1749979812.9059477,2189
1749979812.9060266,1921
1749979812.9061043,1607
1749979812.9295244,1339
1749979812.9435768,1138
1749979812.9436567,1108
1749979812.9437296,1350
1749979812.9438026,1782
1749979812.943875,2150
1749979812.9439478,2299
1749979812.94402,2217
1749979812.9440913,1971
1749979812.9441648,1659
1749979812.9442368,1377
1749979812.944309,1156
1749979812.9443808,1082
1749979812.9444525,1281
1749979812.9445238,1707
1749979812.9445949,2112
1749979812.9446669,2302
1749979812.9447384,2250
1749979812.9448097,2017
1749979812.9448817,1710
1749979812.9449532,1425
1749979812.9450245,1197
1749979812.9508832,1083
1749979812.9567478,1226
1749979812.956829,1622
1749979812.9569025,2054
1749979812.9569752,2289
1749979812.957053,2277
1749979812.957125,2063
1749979812.9575794,1757
1749979812.9576542,1463
1749979812.957727,1228
1749979812.9577992,1086
1749979812.9580626,1174
1749979812.9583762,1525
1749979812.958865,1960
1749979812.9592557,2238
1749979812.9594862,2283
1749979812.9597065,2113
1749979812.9604962,1821
1749979812.9607673,1511
1749979812.9666762,1257
1749979812.9667559,1090
1749979812.9668477,1141
1749979812.9673085,1461
1749979812.967547,1904
1749979812.9677947,2211
1749979812.968045,2286
1749979812.9683464,2141
1749979812.9697955,1865
1749979812.992805,1557
1749979813.0363328,1299
1749979813.065156,1111
1749979813.079239,1112
1749979813.080014,1386
1749979813.0800939,1827
1749979813.0801682,2175
1749979813.0822895,2296
1749979813.082355,2185
1749979813.0824263,1923
1749979813.0824869,1611
1749979813.0825546,1344
1749979813.0826283,1145
1749979813.0827012,1107
1749979813.0827742,1335
1749979813.0828476,1763
1749979813.1144722,2141
1749979813.2225862,2306
1749979813.2419581,2233
1749979813.2423358,1983
1749979813.2426755,1661
1749979813.2430122,1375
1749979813.2433455,1163
1749979813.2436788,1090
1749979813.244011,1268
1749979813.2463105,1661
1749979813.2466483,2052
1749979813.2469826,2258
1749979813.2473166,2241
1749979813.2476487,2028
1749979813.2479799,1709
1749979813.2483141,1395
1749979813.2486734,1156
1749979813.2490067,1055
1749979813.2493417,1212
1749979813.2496815,1607
1749979813.2500205,2033
1749979813.250356,2273
1749979813.2507007,2283
1749979813.2510364,2091
1749979813.2513702,1788
1749979813.2517061,1477
1749979813.3969786,1227
1749979813.4265325,1080
1749979813.4266083,1167
1749979813.4266777,1514
1749979813.426745,1951
1749979813.4268136,2237
1749979813.4268804,2293
1749979813.42695,2129
1749979813.4270177,1833
1749979813.4270868,1511
1749979813.4271553,1249
1749979813.4272227,1081
1749979813.4272916,1124
1749979813.4273586,1431
1749979813.4274256,1869
1749979813.4274921,2190
1749979813.4275594,2293
1749979813.4276257,2171
1749979813.4276936,1897
1749979813.427762,1569
1749979813.427828,1289
1749979813.4278948,1093
1749979813.4279616,1093
1749979813.4280274,1363
1749979813.4280946,1801
1749979813.428161,2151
1749979813.4282274,2283
1749979813.4282947,2186
1749979813.428362,1928
1749979813.4284425,1603
1749979813.4285173,1313
1749979813.4285917,1096
1749979813.4286668,1052
1749979813.4287415,1288
1749979813.4288127,1735
1749979813.4288974,2133
1749979813.4289644,2305
1749979813.429033,2235
1749979813.4290988,1992
1749979813.4291651,1678
1749979813.4292314,1389
1749979813.429297,1156
1749979813.4293625,1052
1749979813.4294324,1213
1749979813.4294977,1621
1749979813.429563,2046
1749979813.4296293,2271
1749979813.4296973,2252
1749979813.4297626,2035
1749979813.4522605,1726
1749979813.454614,1428
1749979813.4549181,1188
1749979813.4551961,1052
1749979813.4963863,1157
1749979813.496514,1516
1749979813.4966025,1942
1749979813.4966903,2203
1749979813.4967778,2232
1749979813.4968638,2046
1749979813.496949,1741
1749979813.4975917,1423
1749979813.5213327,1169
1749979813.5214415,1022
1749979813.5282462,1114
1749979813.5598133,1474
1749979813.5601232,1929
1749979813.56039,2222
1749979813.560764,2274
1749979813.5608516,2107
1749979813.5609329,1820
1749979813.5610137,1510
1749979813.561094,1250
1749979813.5611737,1065
1749979813.5612533,1084
1749979813.561332,1381
1749979813.5614119,1829
1749979813.5614915,2166
1749979813.5615718,2272
1749979813.5616512,2148
1749979813.561748,1874
1749979813.561829,1551
1749979813.561909,1278
1749979813.5619888,1085
1749979813.5620685,1073
1749979813.565966,1324
1749979813.5660555,1747
1749979813.5661373,2097
1749979813.566221,2242
1749979813.5663035,2167
1749979813.5663848,1924
1749979813.5664651,1602
1749979813.5665472,1310
1749979813.5667837,1095
1749979813.566866,1044
1749979813.5669456,1256
1749979813.5670257,1670
1749979813.5671015,2053
1749979813.5671768,2237
1749979813.567252,2198
1749979813.5673273,1976
1749979813.5674026,1660
1749979813.567478,1363
1749979813.5675533,1138
1749979813.5676286,1051
1749979813.5677032,1216
1749979813.5677786,1609
1749979813.567859,2015
1749979813.567935,2233
1749979813.568012,2225
1749979813.568088,2019
1749979813.5681634,1709
1749979813.568238,1400
1749979813.5683134,1159
1749979813.5684037,1030
1749979813.6096148,1139
1749979813.6100118,1497
1749979813.6104138,1921
1749979813.616925,2183
1749979813.6172976,2224
1749979813.6176667,2057
1749979813.6180377,1767
1749979813.6262026,1456
1749979813.6265888,1203
1749979813.6269712,1045
1749979813.627348,1105
1749979813.6277194,1425
1749979813.628091,1854
1749979813.6284926,2153
1749979813.6288645,2236
1749979813.6328704,2104
1749979813.6332543,1830
1749979813.6336403,1511
1749979813.634012,1244
1749979813.634377,1063
1749979813.6347463,1083
1749979813.6351418,1367
1749979813.635512,1798
1749979813.635882,2127
1749979813.682147,2240
1749979813.6828716,2132
1749979813.6831412,1872
1749979813.6832254,1553
1749979813.683305,1278
1749979813.6833827,1082
1749979813.6834612,1061
1749979813.686708,1305
1749979813.6867888,1732
1749979813.6868699,2098
1749979813.686948,2255
1749979813.687026,2188
1749979813.6871042,1951
1749979813.6871815,1637
1749979813.6872594,1350
1749979813.6873367,1132
1749979813.687414,1064
1749979813.6874914,1256
1749979813.687569,1665
1749979813.6876462,2062
1749979813.687723,2262
1749979813.6878002,2235
1749979813.6878767,2017
1749979813.6879535,1703
1749979813.6880307,1403
1749979813.6881073,1172
1749979813.6881843,1070
1749979813.6882613,1223
1749979813.6883383,1616
1749979813.6885128,2040
1749979813.6885931,2278
1749979813.6886728,2283
1749979813.6887813,2086
1749979813.6888645,1784
1749979813.6889427,1479
1749979813.689022,1235
1749979813.6891005,1093
1749979813.6891763,1189
1749979813.6892514,1548
1749979813.6893263,1994
1749979813.689401,2278
1749979813.6894758,2322
1749979813.6895506,2147
1749979813.6896253,1855
1749979813.6897006,1546
1749979813.6897757,1291
1749979813.6898506,1115
1749979813.689926,1151
1749979813.690001,1463
1749979813.6900759,1915
1749979813.690151,2241
1749979813.6902268,2329
1749979813.6902862,2181
1749979813.690367,1894
1749979813.690431,1576
1749979813.6904995,1316
1749979813.6905777,1128
1749979813.690653,1122
1749979813.6907287,1383
1749979813.6908038,1819
1749979813.6908789,2174
1749979813.690956,2308
1749979813.6910315,2208
1749979813.6911073,1944
1749979813.691183,1620
1749979813.691259,1339
1749979813.6913335,1131
1749979813.6914089,1092
1749979813.6914852,1330
1749979813.69156,1773
1749979813.6916378,2164
1749979813.6917152,2329
1749979813.7029676,2253
1749979813.7437932,2008
1749979813.7439194,1700
1749979813.743994,1422
1749979813.7440681,1199
1749979813.7441413,1104
1749979813.7442145,1276
1749979813.7442873,1693
1749979813.74436,2116
1749979813.7444324,2329
1749979813.7445054,2295
1749979813.7445781,2071
1749979813.7446501,1770
1749979813.7447226,1485
1749979813.7447963,1251
1749979813.7448702,1117
1749979813.7449427,1231
1749979813.7450154,1610
1749979813.7450936,2049
1749979813.7451653,2305
1749979813.7452338,2316
1749979813.7453022,2117
1749979813.745374,1818
1749979813.7454467,1519
1749979813.7455177,1276
1749979813.745589,1122
1749979813.7456603,1193
1749979813.7457337,1532
1749979813.7458062,1973
1749979813.7458794,2263
1749979813.7459524,2318
1749979813.7460253,2153
1749979813.7460985,1864
1749979813.7461715,1553
1749979813.7462447,1297
1749979813.746317,1124
1749979813.7463903,1157
1749979813.7464633,1459
1749979813.746537,1898
1749979813.7466094,2219
1749979813.7466824,2314
1749979813.7467546,2188
1749979813.7468274,1919
1749979813.7469,1602
1749979813.746973,1327
1749979813.747045,1129
1749979813.7471175,1119
1749979813.7471902,1383
1749979813.7472632,1822
1749979813.7473416,2176
1749979813.7474139,2309
1749979813.7474864,2215
1749979813.7475593,1961
1749979813.7476315,1644
1749979813.747704,1362
1749979813.7477763,1149
1749979813.7478514,1093
1749979813.7479236,1301
1749979813.7479959,1715
1749979813.7480688,2098
1749979813.7481415,2279
1749979813.748214,2233
1749979813.7482867,2003
1749979813.7483592,1683
1749979813.7774663,1380
1749979813.7776191,1149
1749979813.7777615,1063
1749979813.7801046,1246
1749979813.780209,1668
1749979813.7803037,2095
1749979813.780397,2312
1749979813.7804885,2281
1749979813.7808392,2059
1749979813.780935,1754
1749979813.7810278,1463
1749979813.7811205,1222
1749979813.7812133,1081
1749979813.7813053,1193
1749979813.7813983,1582
1749979813.7814908,2038
1749979813.781583,2289
1749979813.7816756,2271
1749979813.7817814,2050
1749979813.7818744,1765
1749979813.7819664,1500
1749979813.7820585,1272
1749979813.7821522,1090
1749979813.7822409,1123
1749979813.7823267,1470
1749979813.7824135,1975
1749979813.782495,2334
1749979813.7825863,2411
1749979813.7826781,2225
1749979813.7827778,1911
1749979813.7828693,1592
1749979813.7829602,1332
1749979813.7830515,1133
1749979813.7831464,1125
1749979813.7832377,1403
1749979813.7833292,1858
1749979813.7834213,2211
1749979813.7835126,2320
1749979813.7836037,2187
1749979813.7836955,1913
1749979813.7837865,1606
1749979813.7838795,1345
1749979813.783971,1142
1749979813.7840621,1101
1749979813.7841542,1336
1749979813.7842455,1774
1749979813.7843366,2151
1749979813.7844286,2304
1749979813.7845204,2216
1749979813.784612,1965
1749979813.784705,1655
1749979813.7847965,1379
1749979813.7848876,1160
1749979813.7849789,1081
1749979813.7850862,1269
1749979813.7851784,1686
1749979813.7852528,2089
1749979813.785325,2281
1749979813.785397,2233
1749979813.7854693,2001
1749979813.7855418,1691
1749979813.7856147,1401
1749979813.7856867,1170
1749979813.7857594,1061
1749979813.7858374,1208
1749979813.7859108,1604
1749979813.7859838,2031
1749979813.7860565,2266
1749979813.786127,2262
1749979813.7862,2056
1749979813.786266,1751
1749979813.7864997,1454
1749979813.7865624,1218
1749979813.7866368,1079
1749979813.7867155,1168
1749979813.7867885,1513
1749979813.7868614,1939
1749979813.786934,2210
1749979813.7870054,2253
1749979813.7870789,2081
1749979813.7871525,1786
1749979813.787226,1474
1749979813.787299,1223
1749979813.7873716,1066
1749979813.7874415,1130
1749979813.7875106,1464
1749979813.7875838,1916
1749979813.7876568,2227
1749979813.78773,2298
1749979813.7878027,2143
1749979813.7878752,1861
1749979813.7879481,1551
1749979813.7880208,1293
1749979813.7880929,1104
1749979813.7881656,1104
1749979813.788238,1381
1749979813.7883124,1830
1749979813.7898319,2186
1749979813.7947981,2310
1749979813.794878,2196
1749979813.794952,1929
1749979813.795025,1613
1749979813.7951105,1341
1749979813.795184,1135
1749979813.7952566,1093
1749979813.795329,1324
1749979813.7954016,1756
1749979813.7954745,2135
1749979813.7955468,2294
1749979813.7956195,2218
1749979813.795692,1973
1749979813.795765,1658
1749979813.7958374,1371
1749979813.7959106,1143
1749979813.795983,1055
1749979813.7960556,1238
1749979813.796128,1658
1749979813.7962008,2070
1749979813.7962735,2271
1749979813.7963464,2230
1749979813.7964191,2002
1749979813.7964962,1697
1749979813.7965684,1410
1749979813.796641,1179
1749979813.7967136,1058
1749979813.7967856,1190
1749979813.7968576,1582
1749979813.79693,2022
1749979813.7970028,2272
1749979813.7970748,2277
1749979813.7971473,2074
1749979813.7972193,1773
1749979813.797292,1473
1749979813.7973642,1227
1749979813.7974367,1072
1749979813.7975092,1152
1749979813.797582,1506
1749979813.8303394,1957
1749979813.8415215,2244
1749979813.8416712,2285
1749979813.8435142,2110
1749979813.843697,1825
1749979813.8438125,1526
1749979813.8451757,1272
1749979813.8453236,1087
1749979813.84548,1111
1749979813.8456273,1422
1749979813.8457677,1883
1749979813.8458507,2217
1749979813.8459332,2307
1749979813.846016,2163
1749979813.8460987,1888
1749979813.846181,1584
1749979813.8462594,1326
1749979813.8463295,1130
1749979813.8464062,1112
1749979813.846472,1373
1749979813.8465536,1819
1749979813.8466365,2179
1749979813.8467185,2306
1749979813.8468,2196
1749979813.846882,1935
1749979813.846964,1625
1749979813.8470457,1351
1749979813.847127,1136
1749979813.84721,1079
1749979813.8472922,1305
1749979813.8473735,1752
1749979813.847455,2155
1749979813.847537,2325
1749979813.8476195,2246
1749979813.8477035,1996
1749979813.847785,1687
1749979813.8478606,1408
1749979813.8479471,1184
1749979813.848033,1079
1749979813.8481195,1231
1749979813.8482056,1627
1749979813.848293,2040
1749979813.8483791,2259
1749979813.848593,2240
1749979813.8903434,2025
1749979813.8987367,1717
1749979813.8988552,1421
1749979813.898944,1187
1749979813.8990278,1065
1749979813.8993704,1186
1749979813.9299922,1558
1749979813.9319782,1984
1749979813.932091,2234
1749979813.932207,2251
1749979813.9323125,2063
1749979813.9324179,1767
1749979813.9325235,1464
1749979813.9326282,1217
1749979813.9327328,1063
1749979813.9328375,1142
1749979813.9329422,1498
1749979813.9330466,1959
1749979813.9331515,2255
1749979813.9332924,2300
1749979813.9333982,2128
1749979813.933502,1853
1749979813.933607,1566
1749979813.9358463,1310
1749979813.9581063,1104
1749979813.9788454,1111
1749979813.9858055,1441
1749979813.9956064,1953
1749979813.9957182,2321
1749979813.9958766,2395
1749979813.9960134,2217
1749979813.9977725,1941
1749979813.9978507,1670
1749979813.9979248,1430
1749979813.9979975,1198
1749979813.9980707,1116
1749979813.9981434,1356
1749979813.9982164,1849
1749979813.9982896,2272
1749979813.9983628,2415
1749979813.998453,2282
1749979813.998527,2009
1749979813.9986005,1724
1749979813.9986737,1480
1749979813.9987464,1255
1749979813.998819,1135
1749979813.998892,1289
1749979813.9989698,1700
1749979813.9990427,2109
1749979813.9991155,2299
1749979813.9991884,2237
1749979813.9992611,2000
1749979813.999334,1700
1749979813.9994066,1429
1749979813.9994802,1208
1749979813.9995527,1098
1749979813.9996254,1245
1749979813.9996982,1643
1749979813.9997704,2063
1749979813.9998431,2277
1749979813.9999158,2247
1749979813.999988,2029
1749979814.0000606,1734
1749979814.000133,1455
1749979814.0002058,1229
1749979814.0002785,1095
1749979814.0003507,1198
1749979814.000423,1568
1749979814.000496,2008
1749979814.0005684,2264
1749979814.000647,2273
1749979814.0007198,2081
1749979814.0007923,1801
1749979814.0008645,1522
1749979814.0009398,1286
1749979814.0010123,1110
1749979814.0013838,1144
1749979814.001461,1461
1749979814.0015337,1909
1749979814.001606,2217
1749979814.0016778,2279
1749979814.001763,2120
1749979814.001836,1845
1749979814.0019083,1550
1749979814.0019808,1299
1749979814.0020528,1106
1749979814.0021253,1102
1749979814.0021982,1382
1749979814.0022707,1833
1749979814.002343,2177
1749979814.002416,2281
1749979814.0024884,2152
1749979814.0025609,1889
1749979814.0026336,1591
1749979814.0027058,1330
1749979814.002778,1118
1749979814.0028505,1068
1749979814.0029294,1304
1749979814.0030022,1753
1749979814.0030744,2140
1749979814.003146,2285
1749979814.0032184,2184
1749979814.0032904,1930
1749979814.0033627,1629
1749979814.0034344,1362
1749979814.0035067,1139
1749979814.0035791,1047
1749979814.0036514,1236
1749979814.0037236,1677
1749979814.0037954,2106
1749979814.0038679,2301
1749979814.0039403,2235
1749979814.0040126,1992
1749979814.0040848,1694
1749979814.0041578,1423
1749979814.0042295,1190
1749979814.0043015,1051
1749979814.0043738,1171
1749979814.0044458,1572
1749979814.004518,2026
1749979814.0045805,2274
1749979814.0046525,2257
1749979814.0047247,2037
1749979814.004797,1740
1749979814.0048742,1458
1749979814.0049434,1218
1749979814.0050073,1051
1749979814.0159948,1123
1749979814.0386198,1489
1749979814.0621572,1960
1749979814.0626442,2250
1749979814.0707335,2272
1749979814.0711172,2074
1749979814.0717537,1785
1749979814.071871,1502
1749979814.077316,1260
1749979814.0991237,1069
1749979814.0993543,1083
1749979814.0996988,1395
1749979814.099875,1864
1749979814.100048,2198
1749979814.100277,2273
1749979814.100451,2112
1749979814.1006238,1836
1749979814.100815,1546
1749979814.100987,1298
1749979814.1011903,1094
1749979814.1013627,1067
1749979814.1015496,1336
1749979814.1017394,1803
1749979814.101917,2173
1749979814.1021066,2289
1749979814.1023746,2158
1749979814.102563,1893
1749979814.105597,1600
1749979814.1057231,1346
1749979814.1058462,1129
1749979814.105982,1057
1749979814.1061049,1276
1749979814.10632,1732
1749979814.1065366,2142
1749979814.1066475,2305
1749979814.106757,2209
1749979814.1068676,1952
1749979814.1069775,1655
1749979814.1071029,1394
1749979814.107213,1171
1749979814.1073232,1058
1749979814.1074328,1216
1749979814.1075425,1638
1749979814.1076522,2075
1749979814.1077616,2291
1749979814.1078713,2247
1749979814.1079817,2014
1749979814.108091,1715
1749979814.1082015,1438
1749979814.1532435,1202
1749979814.15449,1057
1749979814.1546137,1166
1749979814.1547346,1556
1749979814.1553674,2008
1749979814.1554925,2260
1749979814.1556132,2251
1749979814.1557333,2038
1749979814.1558533,1748
1749979814.1559741,1469
1749979814.1563237,1230
1749979814.1564453,1058
1749979814.1870687,1115
1749979814.1981459,1468
1749979814.198733,1940
1749979814.2055867,2243
1749979814.2057185,2278
1749979814.2058008,2087
1749979814.2058966,1797
1749979814.2059777,1509
1749979814.2060583,1267
1749979814.206141,1078
1749979814.2062216,1088
1749979814.2063017,1393
1749979814.2063804,1866
1749979814.2064607,2213
1749979814.20654,2300
1749979814.206618,2145
1749979814.206698,1865
1749979814.206778,1565
1749979814.206858,1311
1749979814.206937,1106
1749979814.2071605,1068
1749979814.20724,1321
1749979814.207321,1778
1749979814.2073991,2157
1749979814.207481,2289
1749979814.2075598,2173
1749979814.2076385,1908
1749979814.207717,1604
1749979814.2077954,1340
1749979814.207874,1123
1749979814.207953,1050
1749979814.208032,1261
1749979814.20811,1709
1749979814.2081895,2126
1749979814.2082675,2305
1749979814.2083464,2229
1749979814.2084563,1982
1749979814.2085373,1681
1749979814.208678,1409
1749979814.2087574,1179
1749979814.2088363,1060
1749979814.2089152,1211
1749979814.2089937,1630
1749979814.2090726,2075
1749979814.209151,2300
1749979814.2092292,2262
1749979814.2093112,2029
1749979814.2093902,1728
1749979814.2094724,1449
1749979814.2095616,1214
1749979814.2096455,1064
1749979814.2097242,1160
1749979814.2098024,1539
1749979814.2098813,1999
1749979814.2099595,2269
1749979814.2100382,2278
1749979814.2101169,2074
1749979814.2102487,1782
1749979814.210714,1495
1749979814.2107944,1251
1749979814.2335663,1073
1749979814.2621,1120
1749979814.2723236,1463
1749979814.3360522,1939
1749979814.336527,2257
1749979814.3366113,2308
1749979814.3366938,2128
1749979814.336775,1842
1749979814.3368556,1550
1749979814.3369367,1304
1749979814.3370173,1106
1749979814.3525875,1098
1749979814.3530421,1386
1749979814.353377,1854
1749979814.3537102,2209
1749979814.3540409,2307
1749979814.3545272,2161
1749979814.35488,1885
1749979814.3552444,1587
1749979814.3555777,1334
1749979814.35591,1123
1749979814.3593225,1071
1749979814.372165,1309
1749979814.4539077,1767
1749979814.4683304,2162
1749979814.46875,2310
1749979814.4704282,2204
1749979814.5047457,1945
1749979814.5838497,1650
1749979814.6334774,1396
1749979814.634024,1183
1749979814.655623,1094
1749979814.6767952,1279
1749979814.7385035,1710
1749979814.7521796,2129
1749979814.753168,2318
1749979814.7532372,2249
1749979814.7533042,2004
1749979814.7533686,1703
1749979814.7534332,1433
1749979814.7535005,1206
1749979814.8023603,1078
1749979814.8279028,1210
1749979814.912878,1613
1749979814.9153767,2061
1749979814.9167953,2303
1749979814.9168682,2284
1749979814.9169402,2062
1749979814.9170234,1764
1749979814.9170961,1488
1749979814.9171686,1263
1749979814.9172597,1112
1749979814.917337,1182
1749979814.9174075,1523
1749979814.9174778,1960
1749979814.9175477,2239
1749979814.917617,2274
1749979814.917687,2088
1749979814.9177594,1793
1749979814.9178317,1494
1749979814.917903,1255
1749979814.9179747,1095
1749979814.9180453,1145
1749979814.9181166,1468
1749979814.9309309,1918
1749979814.9310212,2225
1749979814.931674,2288
1749979814.9318113,2126
1749979814.9318912,1845
1749979814.9319704,1545
1749979814.9320488,1292
1749979814.932127,1099
1749979814.9322047,1098
1749979814.9322832,1391
1749979814.9323606,1866
1749979814.9324703,2235
1749979814.9325478,2347
1749979814.932625,2214
1749979814.9327025,1945
1749979814.932788,1647
1749979814.9328647,1390
1749979814.932942,1176
1749979814.933019,1110
1749979814.933096,1326
1749979814.9331753,1766
1749979814.9332526,2160
1749979814.933329,2321
1749979814.9334064,2235
1749979814.9334834,1984
1749979814.9335606,1680
1749979814.9336371,1408
1749979814.942078,1183
1749979814.967092,1084
1749979814.967688,1251
1749979814.9677722,1663
1749979814.9678502,2076
1749979814.9724643,2276
1749979814.986508,2233
1749979815.0357075,2006
1749979815.0483215,1706
1749979815.0635817,1425
1749979815.0636973,1195
1749979815.0638328,1074
1749979815.0639381,1211
1749979815.064042,1613
1749979815.0641468,2057
1749979815.0642507,2297
1749979815.0643544,2283
1749979815.0644646,2072
1749979815.0645688,1782
1749979815.0648844,1501
1749979815.064994,1265
1749979815.0651143,1103
1749979815.0652196,1171
1749979815.065324,1523
1749979815.065428,1981
1749979815.0655322,2271
1749979815.0656357,2305
1749979815.0657392,2122
1749979815.0658426,1839
1749979815.0662863,1548
1749979815.0664897,1299
1749979815.0665941,1109
1749979815.070311,1131
1749979815.0706944,1454
1749979815.0708008,1933
1749979815.0709054,2271
1749979815.0710094,2342
1749979815.0711148,2177
1749979815.0712183,1900
1749979815.0713215,1610
1749979815.071425,1357
1749979815.0715284,1142
1749979815.0716317,1099
1749979815.0717552,1360
1749979815.0718596,1831
1749979815.0719626,2216
1749979815.0720668,2342
1749979815.07217,2216
1749979815.0722728,1953
1749979815.0723822,1661
1749979815.0724857,1401
1749979815.0725892,1172
1749979815.0726957,1084
1749979815.072801,1295
1749979815.0729063,1758
1749979815.0730095,2186
1749979815.0731118,2362
1749979815.073215,2269
1749979815.1248968,2010
1749979815.166021,1714
1749979815.1762629,1455
1749979815.178449,1230
1749979815.1785436,1106
1749979815.1788032,1248
1749979815.1788743,1657
1749979815.178945,2091
1749979815.179016,2308
1749979815.1790867,2264
1749979815.1791575,2033
1749979815.1792288,1739
1749979815.179299,1464
1749979815.17937,1226
1749979815.1794417,1078
1749979815.179513,1194
1749979815.1795845,1607
1749979815.1796594,2086
1749979815.1797311,2346
1749979815.1798043,2324
1749979815.1798768,2098
1749979815.179948,1810
1749979815.180019,1538
1749979815.1800904,1291
1749979815.1801617,1092
1749979815.1802328,1133
1749979815.180304,1505
1749979815.1803756,2020
1749979815.1804547,2351
1749979815.180525,2380
1749979815.1805966,2169
1749979815.1806664,1880
1749979815.1807384,1614
1749979815.1808093,1384
1749979815.1808803,1168
1749979815.1809516,1119
1749979815.1810226,1374
1749979815.181092,1832
1749979815.181163,2191
1749979815.1812341,2293
1749979815.1813054,2145
1749979815.1813762,1868
1749979815.181447,1575
1749979815.1815176,1330
1749979815.1815898,1133
1749979815.1816607,1098
1749979815.181746,1352
1749979815.229526,1813
1749979815.2296145,2195
1749979815.2296875,2324
1749979815.2297602,2202
1749979815.2298324,1934
1749979815.2299047,1638
1749979815.229977,1385
1749979815.2300494,1172
1749979815.230121,1083
1749979815.2301931,1264
1749979815.2302651,1685
1749979815.2303367,2090
1749979815.2304087,2271
1749979815.230481,2205
1749979815.2305532,1972
1749979815.2306247,1685
1749979815.2306962,1419
1749979815.230768,1186
1749979815.2308393,1070
1749979815.2309108,1249
1749979815.230983,1719
1749979815.231054,2200
1749979815.2311256,2413
1749979815.231197,2332
1749979815.2312686,2080
1749979815.2313402,1806
1749979815.2314112,1560
1749979815.231483,1311
1749979815.2315602,1108
1749979815.2316313,1177
1749979815.2317028,1601
1749979815.2317865,2137
1749979815.2318583,2433
1749979815.2319295,2401
1749979815.232001,2155
1749979815.2320726,1879
1749979815.2321446,1642
1749979815.2322161,1406
1749979815.2322874,1166
1749979815.232359,1134
1749979815.2324302,1456
1749979815.2325017,1967
1749979815.2462063,2318
1749979815.2462952,2361
1749979815.2466352,2157
1749979815.251098,1876
1749979815.2513754,1618
1749979815.2514539,1391
1749979815.2515318,1173
1749979815.2516098,1124
1749979815.251688,1393
1749979815.258197,1874
1749979815.2584138,2245
1749979815.258477,2334
1749979815.2589345,2168
1749979815.2590096,1887
1749979815.2590895,1607
1749979815.25916,1375
1749979815.2592323,1171
1749979815.2609715,1108
1749979815.2614985,1334
1749979815.261626,1788
1749979815.2617414,2181
1749979815.2618613,2320
1749979815.2619658,2204
1749979815.262069,1942
1749979815.2621727,1652
1749979815.2625098,1402
1749979815.2626135,1184
1749979815.2794561,1083
1749979815.3226552,1258
1749979815.3234344,1689
1749979815.3610983,2111
1749979815.3852339,2296
1749979815.3853137,2219
1749979815.3853834,1972
1749979815.3919432,1681
1749979815.392198,1420
1749979815.3937879,1189
1749979815.4362974,1052
1749979815.4499686,1189
1749979815.4502037,1623
1749979815.4502797,2103
1749979815.4503496,2346
1749979815.4504185,2300
1749979815.4504886,2061
1749979815.4505613,1781
1749979815.4506404,1524
1749979815.4507132,1276
1749979815.450785,1076
1749979815.4508584,1144
1749979815.4509304,1566
1749979815.4510021,2110
1749979815.451074,2419
1749979815.451146,2391
1749979815.4512181,2142
1749979815.4512904,1862
1749979815.4513626,1620
1749979815.4514341,1375
1749979815.4515069,1121
1749979815.45158,1094
1749979815.4552794,1458
1749979815.4904213,2037
1749979815.4911828,2428
1749979815.5022643,2456
1749979815.5037963,2218
1749979815.503906,1933
1749979815.504011,1705
1749979815.5041144,1491
1749979815.50422,1228
1749979815.5043235,1100
1749979815.5044265,1324
1749979815.5045292,1829
1749979815.5046318,2255
1749979815.5047488,2369
1749979815.51079,2192
1749979815.5109015,1901
1749979815.5147254,1632
1749979815.514834,1408
1749979815.5149386,1182
1749979815.5150423,1083
1749979815.5151558,1310
1749979815.5152595,1816
1749979815.5153735,2263
1749979815.5155103,2398
1749979815.515614,2237
1749979815.5157156,1949
1749979815.5157914,1682
1749979815.5158672,1463
1749979815.5159423,1235
1749979815.516018,1085
1749979815.5160928,1235
1749979815.5161676,1703
1749979815.5162432,2192
1749979815.5163183,2402
1749979815.5163932,2301
1749979815.5164688,2029
1749979815.516547,1749
1749979815.5166228,1519
1749979815.5166976,1291
1749979815.5167723,1102
1749979815.5168476,1159
1749979815.5169227,1532
1749979815.516998,1997
1749979815.5170727,2254
1749979815.5171475,2228
1749979815.5172224,2000
1749979815.5172975,1719
1749979815.517372,1464
1749979815.5174468,1229
1749979815.5175216,1044
1749979815.5175967,1110
1749979815.517671,1512
1749979815.5177462,2037
1749979815.517821,2338
1749979815.517896,2316
1749979815.517971,2072
1749979815.518046,1793
1749979815.518121,1553
1749979815.5181947,1319
1749979815.5182543,1079
1749979815.5183294,1057
1749979815.5183997,1422
1749979815.5184677,2005
1749979815.518546,2400
1749979815.518621,2425
1749979815.5186958,2183
1749979815.5187707,1907
1749979815.5188456,1695
1749979815.5189202,1485
1749979815.5189943,1203
1749979815.5190694,1055
1749979815.5191438,1294
1749979815.5192192,1847
1749979815.5192938,2306
1749979815.5193686,2408
1749979815.5194433,2204
1749979815.519518,1919
1749979815.5195928,1690
1749979815.5196674,1487
1749979815.5197423,1224
1749979815.5198169,1053
1749979815.519892,1239
1749979815.519967,1768
1749979815.5200415,2265
1749979815.5201163,2424
1749979815.5201912,2255
1749979815.5202663,1961
1749979815.5203407,1711
1749979815.5204155,1514
1749979815.5205,1284
1749979815.5205748,1091
1749979815.5206492,1179
1749979815.5207238,1602
1749979815.520799,2078
1749979815.5208735,2299
1749979815.5209475,2219
1749979815.5210226,1964
1749979815.5210972,1693
1749979815.521171,1463
1749979815.521246,1238
1749979815.52132,1058
1749979815.5213947,1137
1749979815.5214689,1542
1749979815.5215433,2029
1749979815.5216177,2273
1749979815.5216925,2213
1749979815.5217748,1971
1749979815.5218523,1715
1749979815.5219295,1496
1749979815.5220063,1268
1749979815.5220838,1051
1749979815.5221612,1088
1749979815.5222323,1511
1749979815.5222912,2094
1749979815.5223644,2430
1749979815.5224235,2390
1749979815.5225015,2117
1749979815.5225782,1844
1749979815.5226555,1645
1749979815.5227325,1437
1749979815.5228093,1163
1749979815.5228865,1052
1749979815.5229635,1333
1749979815.5230403,1888
1749979815.5231173,2307
1749979815.523195,2369
1749979815.5232718,2144
1749979815.5233488,1858
1749979815.5234256,1635
1749979815.5235023,1442
1749979815.5235794,1195
1749979815.5236561,1050
1749979815.5352716,1243
1749979815.6103008,1732
1749979815.6137393,2164
1749979815.6142378,2286
1749979815.6152313,2115
1749979815.6157558,1829
1749979815.6167424,1571
1749979815.6169653,1356
1749979815.6171658,1128
1749979815.6173654,1002
1749979815.6175556,1208
1749979815.6200514,1729
1749979815.6208196,2220
1749979815.621395,2382
1749979815.621995,2219
1749979815.650245,1922
1749979815.650329,1665
1749979815.6504052,1468
1749979815.6504807,1243
1749979815.6505563,1041
1749979815.650632,1110
1749979815.6507068,1523
1749979815.6507814,2018
1749979815.6508565,2266
1749979815.6509316,2201
1749979815.6510062,1946
1749979815.6510808,1676
1749979815.6511562,1457
1749979815.6512318,1244
1749979815.6513062,1053
1749979815.6513815,1091
1749979815.651456,1454
1749979815.6515305,1938
1749979815.6516047,2220
1749979815.6516793,2207
1749979815.651766,1979
1749979815.6518412,1700
1749979815.6519165,1453
1749979815.6519914,1232
1749979815.6520655,1037
1749979815.6521401,1059
1749979815.652224,1413
1749979815.6522985,1927
1749979815.6523728,2255
1749979815.6524475,2268
1749979815.6525216,2044
1749979815.6525965,1765
1749979815.6526706,1522
1749979815.6527455,1302
1749979815.6528199,1074
1749979815.6528943,1022
1749979815.6529684,1323
1749979815.6530428,1863
1749979815.6531165,2271
1749979815.653191,2347
1749979815.6532664,2145
1749979815.6533403,1862
1749979815.653417,1619
1749979815.653495,1406
1749979815.6535726,1160
1749979815.6536505,1029
1749979815.6537309,1239
1749979815.6538086,1750
1749979815.6538868,2209
1749979815.653964,2353
1749979815.6540413,2196
1749979815.6541178,1918
1749979815.654199,1663
1749979815.6542614,1441
1749979815.6543393,1188
1749979815.6544013,1016
1749979815.6544683,1172
1749979815.6545517,1665
1749979815.654637,2162
1749979815.6547217,2351
1749979815.654807,2218
1749979815.7120926,1941
1749979815.7243695,1688
1749979815.725896,1484
1749979815.7259738,1250
1749979815.7260482,1047
1749979815.726158,1126
1749979815.72737,1564
1749979815.7274444,2083
1749979815.7275178,2338
1749979815.7275908,2266
1749979815.7276635,2003
1749979815.7277365,1735
1749979815.7278094,1515
1749979815.7278824,1289
1749979815.7279553,1070
1749979815.7280283,1086
1749979815.728101,1451
1749979815.728174,1955
1749979815.7282462,2251
1749979815.7283187,2236
1749979815.7284055,2005
1749979815.728479,1736
1749979815.7285514,1501
1749979815.728624,1278
1749979815.728697,1063
1749979815.7287688,1061
1749979815.7288399,1412
1749979815.7289114,1947
1749979815.7289824,2297
1749979815.729054,2315
1749979815.729126,2091
1749979815.7291975,1819
1749979815.729269,1587
1749979815.7293403,1366
1749979815.7294123,1117
1749979815.7294838,1033
1749979815.729555,1322
1749979815.7296264,1875
1749979815.7296977,2301
1749979815.7297692,2376
1749979815.729841,2167
1749979815.729912,1888
1749979815.729984,1660
1749979815.730056,1451
1749979815.7301273,1186
1749979815.7301998,1032
1749979815.7302725,1247
1749979815.7303443,1799
1749979815.7304165,2296
1749979815.730489,2435
1749979815.7305608,2248
1749979815.7306325,1959
1749979815.730704,1732
1749979815.7307758,1543
1749979815.730855,1284
1749979815.7309275,1061
1749979815.7309995,1171
1749979815.7310712,1665
1749979815.731143,2200
1749979815.7312145,2412
1749979815.7312868,2271
1749979815.731359,1977
1749979815.7440166,1729
1749979815.7562888,1538
1749979815.7564125,1304
1749979815.7565186,1074
1749979815.7566235,1134
1749979815.7567296,1591
1749979815.7568345,2156
1749979815.7569392,2433
1749979815.757044,2338
1749979815.7571752,2042
1749979815.7572806,1772
1749979815.7577977,1586
1749979815.8834345,1395
1749979815.9303207,1162
1749979815.946239,1113
1749979815.9613066,1410
1749979815.9617438,1896
1749979815.9621534,2221
1749979815.962499,2241
1749979815.9629877,2019
1749979815.9633574,1731
1749979815.9637058,1481
1749979815.9640417,1276
1749979815.9643793,1089
1749979815.9647317,1077
1749979815.9651072,1372
1749979816.018708,1851
1749979816.0484698,2193
1749979816.100722,2250
1749979816.1008887,2061
1749979816.1010334,1778
1749979816.110178,1516
1749979816.1102622,1303
1749979816.1104085,1108
1749979816.1104813,1059
1749979816.1110742,1311
1749979816.11115,1788
1749979816.1121826,2178
1749979816.1135273,2287
1749979816.118714,2132
1749979816.119311,1861
1749979816.1205473,1597
1749979816.1210732,1375
1749979816.1211574,1154
1749979816.1212382,1046
1749979816.121319,1245
1749979816.1214,1728
1749979816.1480863,2180
1749979816.1626418,2346
1749979816.16276,2225
1749979816.1628714,1964
1749979816.162997,1705
1749979816.1631107,1475
1749979816.1632202,1226
1749979816.1633365,1052
1749979816.163409,1192
1749979816.1634793,1678
1749979816.163554,2199
1749979816.1636252,2425
1749979816.1636927,2319
1749979816.1637645,2047
1749979816.1638336,1791
1749979816.1639087,1581
1749979816.1639812,1343
1749979816.1640542,1110
1749979816.1641285,1140
1749979816.1641998,1545
1749979816.1642714,2076
1749979816.1643426,2364
1749979816.1644135,2318
1749979816.164485,2069
1749979816.1645558,1810
1749979816.1646266,1591
1749979816.1659625,1355
1749979816.1660397,1108
1749979816.1661117,1101
1749979816.166183,1487
1749979816.1662455,2060
1749979816.1663134,2415
1749979816.166376,2402
1749979816.166441,2138
1749979816.1665118,1849
1749979816.1665826,1634
1749979816.1666534,1443
1749979816.1667237,1208
1749979816.166795,1109
1749979816.1668658,1342
1749979816.166937,1821
1749979816.1670077,2201
1749979816.1670787,2288
1749979816.1671495,2113
1749979816.1672199,1844
1749979816.1672952,1595
1749979816.1673658,1377
1749979816.1674373,1154
1749979816.1675076,1073
1749979816.1675785,1329
1749979816.1676493,1850
1749979816.1677196,2279
1749979816.1679754,2383
1749979816.168046,2199
1749979816.168117,1914
1749979816.1681876,1661
1749979816.168259,1449
1749979816.1683295,1212
1749979816.1684155,1069
1749979816.1684883,1258
1749979816.1685607,1775
1749979816.1686335,2276
1749979816.1687055,2454
1749979816.1687744,2303
1749979816.1688457,2011
1749979816.1689174,1755
1749979816.1689894,1558
1749979816.1690617,1329
1749979816.1691334,1110
1749979816.169206,1141
1749979816.1692774,1510
1749979816.1693504,1978
1749979816.1694221,2231
1749979816.169493,2192
1749979816.1695642,1957
1749979816.1696353,1684
1749979816.1697063,1441
1749979816.1697767,1209
1749979816.1698475,1027
1749979816.1699188,1108
1749979816.1699896,1530
1749979816.1700604,2056
1749979816.1943076,2335
1749979816.201291,2284
1749979816.201401,2024
1749979816.2027245,1746
1749979816.2028685,1520
1749979816.2029386,1297
1749979816.2030094,1068
1749979816.2030795,1057
1749979816.2031484,1423
1749979816.2032175,1987
1749979816.2032876,2354
1749979816.2033577,2363
1749979816.2034285,2121
1749979816.203498,1849
1749979816.2035666,1637
1749979816.203635,1426
1749979816.2037044,1159
1749979816.2037737,1047
1749979816.2038424,1322
1749979816.2039106,1887
1749979816.2039795,2333
1749979816.2040498,2414
1749979816.2041214,2190
1749979816.2041898,1891
1749979816.2042575,1659
1749979816.2043269,1468
1749979816.2043955,1225
1749979816.2044654,1071
1749979816.2045338,1250
1749979816.2046049,1746
1749979816.2046733,2210
1749979816.204741,2361
1749979816.2048094,2203
1749979816.2048779,1917
1749979816.2049465,1658
1749979816.2050238,1442
1749979816.2051218,1203
1749979816.2051911,1040
1749979816.2052598,1191
1749979816.205329,1673
1749979816.2053971,2164
1749979816.2054658,2352
1749979816.2055373,2222
1749979816.2056115,1945
1749979816.2119958,1691
1749979816.2121015,1485
1749979816.21217,1254
1749979816.2125611,1056
1749979816.212628,1147
1749979816.2159188,1604
1749979816.216972,2142
1749979816.2170496,2400
1749979816.217687,2310
1749979816.2592964,2028
1749979816.2642622,1755
1749979816.2646506,1543
1749979816.2650898,1325
1749979816.2654471,1099
1749979816.265786,1098
1749979816.2661252,1455
1749979816.2679574,1972
1749979816.26835,2293
1749979816.268748,2293
1749979816.2867584,2059
1749979816.2929792,1773
1749979816.2933393,1527
1749979816.2934089,1312
1749979816.2934787,1104
1749979816.3163617,1076
1749979816.336714,1363
1749979816.348401,1838
1749979816.3484852,2182
1749979816.3485591,2252
1749979816.3542798,2077
1749979816.3543606,1798
1749979816.354422,1522
1749979816.3544955,1291
1749979816.3545694,1093
1749979816.3546593,1062
1749979816.354733,1328
1749979816.354806,1799
1749979816.3548782,2170
1749979816.3549511,2271
1749979816.3550236,2120
1749979816.3551238,1848
1749979816.355197,1568
1749979816.3552692,1325
1749979816.3553407,1101
1749979816.3554125,1019
1749979816.3554845,1256
1749979816.355569,1757
1749979816.355641,2198
1749979816.3557131,2340
1749979816.3557847,2198
1749979816.3558562,1931
1749979816.35666,1670
1749979816.356767,1431
1749979816.356885,1169
1749979816.3569887,1001
1749979816.357092,1178
1749979816.3571956,1711
1749979816.3573103,2257
1749979816.357414,2474
1749979816.3575177,2341
1749979816.3576539,2048
1749979816.3577597,1784
1749979816.3578644,1571
1749979816.3579843,1322
1749979816.3580894,1073
1749979816.3581972,1085
1749979816.3585737,1470
1749979816.3586586,1988
1749979816.358739,2284
1749979816.3588092,2258
1749979816.3588889,2020
1749979816.3589714,1748
1749979816.359065,1511
1749979816.3623042,1275
1749979816.4336605,1056
1749979816.438248,1077
1749979816.4383624,1459
1749979816.4610484,1996
1749979816.4613822,2322
1749979816.4615045,2312
1749979816.500325,2069
1749979816.5006745,1787
1749979816.5010107,1547
1749979816.501336,1324
1749979816.501676,1098
1749979816.5020306,1075
1749979816.5023494,1423
1749979816.502678,1990
1749979816.5030077,2383
1749979816.503338,2419
1749979816.5036669,2180
1749979816.5039885,1885
1749979816.5043094,1652
1749979816.5046315,1454
1749979816.5049527,1209
1749979816.5053055,1065
1749979816.5056348,1241
1749979816.5059597,1705
1749979816.5062814,2130
1749979816.5066013,2279
1749979816.5069296,2143
1749979816.5072641,1871
1749979816.5076208,1598
1749979816.507956,1365
1749979816.5082867,1135
1749979816.5713568,1024
1749979816.5751526,1232
1749979816.6385646,1731
1749979816.640146,2192
1749979816.6403613,2344
1749979816.6407568,2194
1749979816.6641026,1912
1749979816.664218,1656
1749979816.670731,1444
1749979816.6708076,1209
1749979816.6708758,1036
1749979816.670943,1178
1749979816.6710103,1677
1749979816.6710768,2214
1749979816.671143,2441
1749979816.6712108,2320
1749979816.6712773,2034
1749979816.671344,1780
1749979816.671411,1582
1749979816.671478,1345
1749979816.6715448,1098
1749979816.6716127,1113
1749979816.6716795,1517
1749979816.6717584,2063
1749979816.6718247,2368
1749979816.671891,2322
1749979816.6719558,2059
1749979816.6720214,1786
1749979816.6720877,1569
1749979816.6721544,1348
1749979816.6722193,1110
1749979816.6722836,1085
1749979816.6723492,1430
1749979816.672415,1965
1749979816.6724923,2310
1749979816.6725583,2315
1749979816.672624,2076
1749979816.6726902,1795
1749979816.6727557,1560
1749979816.6728213,1336
1749979816.672887,1096
1749979816.672953,1048
1749979816.6730182,1381
1749979816.6730835,1957
1749979816.673149,2370
1749979816.6732147,2413
1749979816.6732805,2171
1749979816.6733458,1876
1749979816.6734114,1650
1749979816.6734772,1454
1749979816.6735425,1204
1749979816.6736083,1058
1749979816.6736743,1260
1749979816.6737397,1774
1749979816.6738043,2232
1749979816.6738698,2366
1749979816.6739352,2194
1749979816.6866353,1912
1749979816.737334,1666
1749979816.7385137,1454
1749979816.738593,1203
1749979816.738666,1036
1749979816.7387435,1206
1749979816.7388186,1718
1749979816.73889,2222
1749979816.738965,2399
1749979816.739041,2244
1749979816.7391112,1951
1749979816.7393324,1696
1749979816.7394054,1493
1749979816.7394762,1252
1749979816.7395525,1039
1749979816.7396271,1124
1749979816.7396977,1585
1749979816.7397723,2128
1749979816.7398462,2386
1749979816.7399178,2293
1749979816.7399929,2009
1749979816.7642937,1739
1749979816.7815747,1537
1749979816.7950277,1327
1749979816.7951107,1110
1749979816.795178,1116
1749979816.827833,1472
1749979816.8327742,1977
1749979816.833438,2281
1749979816.834144,2269
1749979816.8348458,2031
1749979816.8356428,1744
1749979816.836677,1496
1749979816.837462,1277
1749979816.8381946,1076
1749979816.8478165,1071
1749979816.8494508,1386
1749979816.850874,1870
1749979816.8522925,2200
1749979816.8723373,2243
1749979816.8736901,2048
1749979816.8741086,1763
1749979816.8741722,1492
1749979816.8742402,1269
1749979816.8743029,1078
1749979816.8744557,1051
1749979816.8768053,1311
1749979816.940181,1761
1749979816.967028,2111
1749979816.9671164,2209
1749979816.9671996,2068
1749979816.9674373,1802
1749979816.967519,1515
1749979816.967599,1267
1749979816.9676785,1058
1749979816.9677575,1002
1749979816.9678366,1242
1749979816.9679158,1710
1749979816.9679945,2113
1749979816.9680734,2251
1749979816.9681523,2132
1749979816.9682312,1878
1749979816.9683096,1603
1749979816.9683974,1351
1749979816.9684777,1107
1749979816.968557,984
1749979816.968635,1189
1749979816.968714,1705
1749979816.9687924,2207
1749979816.9688714,2399
1749979816.9689505,2270
1749979816.9690304,1992
1749979816.9691114,1732
1749979816.9691908,1513
1749979816.9692695,1264
1749979816.9693563,1045
1749979816.9694347,1117
1749979816.9695132,1565
1749979816.9695916,2116
1749979816.9696696,2402
1749979816.969748,2340
1749979816.969826,2069
1749979816.969904,1788
1749979816.9699821,1558
1749979816.9700603,1324
1749979816.970138,1087
1749979816.9702096,1075
1749979816.9702861,1420
1749979816.970356,1932
1749979816.9704187,2259
1749979816.9704971,2272
1749979816.9705753,2043
1749979816.9706538,1751
1749979816.9707322,1495
1749979816.9708111,1270
1749979816.9708893,1064
1749979816.9709735,1052
1749979816.9711196,1370
1749979816.9711978,1875
1749979816.971276,2227
1749979816.995157,2276
1749979817.0625756,2077
1749979817.0626726,1798
1749979817.0627596,1540
1749979817.062846,1308
1749979817.0629323,1083
1749979817.0630221,1038
1749979817.06311,1353
1749979817.0631962,1915
1749979817.0632823,2345
1749979817.0633688,2425
1749979817.0634542,2215
1749979817.0635402,1927
1749979817.0636268,1691
1749979817.063713,1486
1749979817.0637982,1234
1749979817.0638835,1074
1749979817.0639699,1255
1749979817.0640545,1764
1749979817.0641406,2248
1749979817.064228,2415
1749979817.0643134,2267
1749979817.064398,1989
1749979817.0644825,1738
1749979817.064567,1522
1749979817.0646522,1267
1749979817.0647373,1075
1749979817.064822,1207
1749979817.0649111,1695
1749979817.064996,2211
1749979817.0669346,2419
1749979817.0670528,2291
1749979817.0671582,2009
1749979817.0672743,1754
1749979817.0999568,1546
1749979817.1032665,1301
1749979817.1033823,1074
1749979817.103492,1139
1749979817.1036017,1595
1749979817.103707,2159
1749979817.1038115,2439
1749979817.1070583,2355
1749979817.1071708,2070
1749979817.1072772,1799
1749979817.1077352,1592
1749979817.1102662,1367
1749979817.114463,1125
1749979817.1168296,1115
1749979817.1169407,1493
1749979817.1170478,2050
1749979817.1171541,2392
1749979817.1172593,2380
1749979817.1173635,2126
1749979817.1174676,1841
1749979817.117572,1616
1749979817.1176767,1409
1749979817.1177804,1174
1749979817.1178837,1092
1749979817.1179903,1335
1749979817.118097,1803
1749979817.118202,2168
1749979817.1239424,2257
1749979817.1623592,2090
1749979817.247012,1808
1749979817.2579327,1528
1749979817.2702782,1300
1749979817.2738893,1112
1749979817.2746427,1081
1749979817.2747567,1336
1749979817.2751253,1793
1749979817.2752063,2162
1749979817.275298,2271
1749979817.275643,2132
1749979817.2814395,1860
1749979817.2815266,1572
1749979817.2823465,1329
1749979817.3288956,1121
1749979817.3334606,1042
1749979817.3338687,1244
1749979817.4540088,1692
1749979817.455152,2110
1749979817.4552248,2275
1749979817.4552937,2173
1749979817.4553814,1915
1749979817.4554489,1630
1749979817.4555192,1377
1749979817.4555886,1140
1749979817.455656,1003
1749979817.455725,1170
1749979817.455792,1651
1749979817.4558628,2157
1749979817.4559357,2383
1749979817.4560094,2292
1749979817.4560788,2028
1749979817.4561462,1761
1749979817.4562135,1531
1749979817.4562848,1282
1749979817.456354,1060
1749979817.4564214,1121
1749979817.456488,1567
1749979817.4565573,2135
1749979817.456625,2439
1749979817.5004592,2378
1749979817.50656,2103
1749979817.5066826,1831
1749979817.5068018,1617
1749979817.506936,1380
1749979817.507055,1111
1749979817.507995,1069
1749979817.5081155,1438
1749979817.5082483,2023
1749979817.5083675,2405
1749979817.508505,2411
1749979817.5086348,2153
1749979817.5087528,1869
1749979817.5091064,1652
1749979817.5148757,1440
1749979817.5152583,1175
1749979817.515929,1072
1749979817.5163026,1353
1749979817.5164366,1905
1749979817.5296996,2326
1749979817.5298142,2388
1749979817.5319161,2159
1749979817.5320373,1864
1749979817.5323725,1632
1749979817.5324948,1432
1749979817.5325992,1185
1749979817.5331528,1055
1749979817.5332606,1280
1749979817.533365,1814
1749979817.5334694,2276
1749979817.5338237,2395
1749979817.533931,2199
1749979817.5367055,1905
1749979817.5369263,1665
1749979817.5370038,1466
1749979817.5370772,1221
1749979817.5374908,1056
1749979817.5375667,1241
1749979817.5914896,1782
1749979817.59342,2307
1749979817.594645,2476
1749979817.5979927,2295
1749979817.5980713,1990
1749979817.5981443,1748
1749979817.5982084,1559
1749979817.5982714,1309
1749979817.598337,1074
1749979817.5984094,1156
1749979817.5984814,1641
1749979817.5985558,2211
1749979817.5986276,2471
1749979817.5986996,2356
1749979817.598771,2056
1749979817.5988433,1793
1749979817.5989156,1601
1749979817.5989876,1379
1749979817.5990605,1130
1749979817.599132,1116
1749979817.5992038,1481
1749979817.5992756,2009
1749979817.5993483,2322
1749979817.5994196,2299
1749979817.5994918,2047
1749979817.5998409,1766
1749979817.6000516,1535
1749979817.6001923,1314
1749979817.6200664,1094
1749979817.6452115,1090
1749979817.645293,1452
1749979817.6453667,1998
1749979817.6454856,2347
1749979817.6455708,2348
1749979817.645644,2100
1749979817.6457171,1815
1749979817.6459808,1589
1749979817.646053,1382
1749979817.6461263,1145
1749979817.6461947,1075
1749979817.6462626,1375
1749979817.6463308,1931
1749979817.6464038,2348
1749979817.646476,2409
1749979817.6465502,2184
1749979817.6466222,1893
1749979817.6466944,1655
1749979817.646767,1439
1749979817.646845,1172
1749979817.6469183,1026
1749979817.646991,1253
1749979817.6470642,1808
1749979817.6471372,2300
1749979817.64721,2439
1749979817.6472836,2253
1749979817.647357,1956
1749979817.6474304,1711
1749979817.6475105,1513
1749979817.6475835,1268
1749979817.6476564,1074
1749979817.6477287,1184
1749979817.6478014,1637
1749979817.647877,2126
1749979817.6479506,2337
1749979817.6480236,2230
1749979817.6480963,1953
1749979817.648169,1675
1749979817.6482432,1444
1749979817.6483173,1210
1749979817.648416,1030
1749979817.6484857,1132
1749979817.6485593,1572
1749979817.6486325,2081
1749979817.6487055,2326
1749979817.648779,2247
1749979817.648852,1977
1749979817.6489258,1698
1749979817.648999,1464
1749979817.6490724,1232
1749979817.6491458,1027
1749979817.649219,1088
1749979817.649293,1521
1749979817.6493673,2088
1749979817.649441,2408
1749979817.649525,2368
1749979817.649598,2098
1749979817.6496708,1814
1749979817.6497438,1595
1749979817.6588376,1383
1749979817.6589415,1134
1749979817.6590152,1053
1749979817.6590884,1319
1749979817.659161,1815
1749979817.6592336,2191
1749979817.6593168,2267
1749979817.6593888,2078
1749979817.6594608,1789
1749979817.659533,1519
1749979817.6596055,1286
1749979817.6596775,1068
1749979817.6597497,1019
1749979817.6598215,1300
1749979817.6598938,1811
1749979817.6599655,2210
1749979817.6600373,2299
1749979817.6601095,2114
1749979817.6601815,1827
1749979817.6602533,1561
1749979817.660325,1334
1749979817.6603968,1101
1749979817.6604686,995
1749979817.6605413,1227
1749979817.660613,1753
1749979817.6606855,2225
1749979817.6607616,2373
1749979817.660835,2207
1749979817.660907,1915
1749979817.6609783,1653
1749979817.66105,1437
1749979817.6611218,1190
1749979817.6611931,1006
1749979817.6612651,1134
1749979817.661337,1612
1749979817.6644235,2130
1749979817.6645048,2356
1749979817.664579,2245
1749979817.6646523,1959
1749979817.6647255,1685
1749979817.6647997,1467
1749979817.6648734,1236
1749979817.664947,1029
1749979817.6650207,1087
1749979817.665112,1502
1749979817.6651874,2027
1749979817.6652637,2314
1749979817.6653373,2269
1749979817.6654105,2011
1749979817.6654835,1728
1749979817.6655576,1486
1749979817.665631,1249
1749979817.6657045,1033
1749979817.6657772,1071
1749979817.66585,1483
1749979817.6659229,2045
1749979817.665996,2373
1749979817.666069,2343
1749979817.666142,2077
1749979817.6662064,1792
1749979817.6662736,1565
1749979817.6663406,1344
1749979817.6664014,1092
1749979817.6664743,1028
1749979817.6665466,1337
1749979817.6666195,1882
1749979817.6666925,2274
1749979817.666766,2322
1749979817.6668386,2099
1749979817.6669118,1813
1749979817.6669846,1575
1749979817.6670575,1359
1749979817.6671305,1113
1749979817.6672053,1010
1749979817.6672783,1265
1749979817.667351,1797
1749979817.6674242,2235
1749979817.6674972,2340
1749979817.6675699,2149
1749979817.6676428,1856
1749979817.667715,1597
1749979817.6677883,1375
1749979817.667861,1129
1749979817.667934,998
1749979817.6680062,1214
1749979817.6680796,1746
1749979817.6720026,2231
1749979817.6720843,2383
1749979817.67216,2217
1749979817.6722345,1932
1749979817.6723084,1688
1749979817.6723847,1481
1749979817.6724584,1227
1749979817.672532,1019
1749979817.6726067,1131
1749979817.6726816,1612
1749979817.6727557,2140
1749979817.6728292,2366
1749979817.6729023,2251
1749979817.7199433,1975
1749979817.720039,1723
1749979817.7201245,1514
1749979817.7277083,1270
1749979817.7278194,1044
1749979817.7279217,1117
1749979817.7280228,1589
1749979817.7281618,2169
1749979817.7282636,2454
1749979817.7283647,2363
1749979817.7284756,2068
1749979817.7286108,1798
1749979817.728713,1604
1749979817.7288144,1394
1749979817.7301064,1140
1749979817.73019,1081
1749979817.7302597,1391
1749979817.730378,1905
1749979817.730458,2254
1749979817.7305412,2282
1749979817.730624,2058
1749979817.7307065,1771
1749979817.7307887,1523
1749979817.730871,1307
1749979817.7309532,1096
1749979817.7310355,1061
1749979817.7311172,1350
1749979817.731238,1842
1749979817.7313206,2199
1749979817.731403,2256
1749979817.7314851,2065
1749979817.7315655,1785
1749979817.733004,1523
1749979817.7330892,1295
1749979817.7331727,1075
1749979817.733257,1017
1749979817.7333925,1298
1749979817.734035,1830
1749979817.734119,2259
1749979817.734197,2365
1749979817.7342958,2185
1749979817.7343707,1900
1749979817.7344463,1644
1749979817.7345278,1427
1749979817.7346096,1189
1749979817.7346914,1039
1749979817.7347977,1200
1749979817.7348807,1670
1749979817.757908,2138
1749979817.7580068,2328
1749979817.758086,2218
1749979817.7581642,1951
1749979817.7582278,1678
1749979817.7583108,1445
1749979817.7583752,1208
1749979817.7584512,1037
1749979817.7585306,1151
1749979817.7586088,1588
1749979817.758687,2079
1749979817.758782,2315
1749979817.7588568,2245
1749979817.7590623,1988
1749979817.759149,1707
1749979817.7592437,1467
1749979817.7593226,1239
1749979817.7594008,1049
1749979817.7594807,1103
1749979817.7595596,1487
1749979817.7596517,1989
1749979817.7597299,2284
1749979817.7598083,2274
1749979817.7598863,2039
1749979817.7599645,1746
1749979817.7600846,1488
1749979817.760171,1268
1749979817.7602494,1076
1749979817.7603276,1081
1749979817.7733788,1393
1749979817.7805371,1866
1749979817.7960575,2191
1749979817.796175,2239
1749979817.7962818,2048
1749979817.8396902,1761
1749979817.8502228,1484
1749979817.8503063,1247
1749979817.8503833,1041
1749979817.8504605,1019
1749979817.8505533,1309
1749979817.8506393,1799
1749979817.8507245,2167
1749979817.8508086,2249
1749979817.8508928,2082
1749979817.850978,1814
1749979817.8510628,1550
1749979817.8511465,1303
1749979817.8512313,1058
1749979817.8513155,982
1749979817.8513997,1275
1749979817.851484,1853
1749979817.8515797,2327
1749979817.851664,2439
1749979817.8517768,2238
1749979817.8518631,1947
1749979817.8519492,1714
1749979817.8520339,1510
1749979817.8521175,1235
1749979817.8522015,1022
1749979817.8522859,1164
1749979817.85237,1695
1749979817.8524547,2249
1749979817.8525388,2464
1749979817.8526235,2313
1749979817.8527079,2013
1749979817.8527918,1764
1749979817.8528755,1569
1749979817.8529594,1317
1749979817.853044,1074
1749979817.853128,1134
1749979817.8532119,1600
1749979817.8532958,2169
1749979817.8533797,2446
1749979817.853464,2351
1749979817.8535485,2055
1749979817.8536322,1782
1749979817.8537176,1578
1749979817.853802,1355
1749979817.8538857,1115
1749979817.8539762,1114
1749979817.854046,1494
1749979817.8541117,2036
1749979817.8541746,2354
1749979817.8542454,2326
1749979817.8543072,2067
1749979817.8543768,1785
1749979817.8544483,1558
1749979817.8545184,1337
1749979817.8545887,1107
1749979817.8546596,1091
1749979817.85473,1454
1749979817.8548014,2019
1749979817.8548732,2390
1749979817.8549433,2399
1749979817.8550143,2148
1749979817.8550963,1860
1749979817.8551672,1631
1749979817.8552365,1416
1749979817.8553083,1159
1749979817.8553784,1059
1749979817.85545,1335
1749979817.8555195,1887
1749979817.8555906,2319
1749979817.8556612,2398
1749979817.8557296,2182
1749979817.8557985,1894
1749979817.8558707,1664
1749979817.85594,1461
1749979817.8560116,1206
1749979817.8560822,1053
1749979817.8561518,1256
1749979817.8562222,1785
1749979817.906861,2265
1749979817.95186,2403
1749979817.9523795,2223
1749979817.9527621,1934
1749979817.9531915,1692
1749979817.960342,1482
1749979817.962101,1222
1749979817.9621778,1034
1749979817.96224,1199
1749979817.9623127,1738
1749979817.9623742,2283
1749979817.9624438,2476
1749979817.9625187,2309
1749979817.962593,2004
1749979817.962668,1760
1749979817.9627433,1573
1749979817.9628186,1327
1749979817.9628937,1078
1749979817.9629688,1122
1749979817.9630432,1571
1749979817.963118,2139
1749979817.9631937,2428
1749979817.963268,2345
1749979817.9633422,2051
1749979817.963417,1770
1749979817.9634914,1562
1749979817.9635656,1345
1749979817.9636395,1108
1749979817.9637144,1087
1749979817.9637887,1428
1749979817.963864,1944
1749979817.9639385,2266
1749979817.9640183,2262
1749979817.9640932,2020
1749979817.9641674,1736
1749979817.9642413,1497
1749979817.964316,1278
1749979817.9643908,1062
1749979817.964466,1056
1749979817.9645407,1417
1749979817.964615,1981
1749979817.96469,2359
1749979817.9647639,2376
1749979817.9648368,2125
1749979817.965151,1829
1749979817.965229,1595
1749979817.9671113,1386
1749979817.9672136,1138
1749979817.9672885,1034
1749979817.9673629,1297
1749979817.9674375,1841
1749979817.9675279,2280
1749979817.9676034,2369
1749979817.967678,2162
1749979817.9677522,1876
1749979817.9678266,1640
1749979817.9679008,1425
1749979817.9685636,1155
1749979817.9686408,997
1749979817.968749,1215
1749979817.968825,1780
1749979817.9688983,2296
1749979817.969003,2447
1749979818.0083706,2255
1749979818.0085366,1951
1749979818.008651,1711
1749979818.0087614,1520
1749979818.0088725,1268
1749979818.0089831,1049
1749979818.0090926,1148
1749979818.009216,1628
1749979818.0093253,2162
1749979818.0094335,2392
1749979818.0095427,2271
1749979818.0096533,1983
1749979818.0097713,1724
1749979818.0099218,1518
1749979818.0100567,1277
1749979818.0102782,1050
1749979818.0105271,1110
1749979818.030289,1563
1749979818.03046,2127
1749979818.0305338,2409
1749979818.0306065,2320
1749979818.030678,2030
1749979818.0307498,1762
1749979818.030823,1565
1749979818.030894,1346
1749979818.0309653,1095
1749979818.0310369,1077
1749979818.0311081,1464
1749979818.0311794,2043
1749979818.031252,2394
1749979818.0313232,2365
1749979818.0313942,2088
1749979818.0314655,1806
1749979818.0315363,1599
1749979818.0316079,1391
1749979818.031679,1136
1749979818.038477,1067
1749979818.0502172,1397
1749979818.0503755,1983
1749979818.0504932,2401
1749979818.0793183,2440
1749979818.138083,2188
1749979818.1382158,1885
1749979818.1383376,1656
1749979818.1386025,1459
1749979818.138728,1211
1749979818.1388488,1068
1749979818.1420472,1256
1749979818.142118,1734
1749979818.1421838,2161
1749979818.1422536,2298
1749979818.1423163,2146
1749979818.1423874,1864
1749979818.1429543,1591
1749979818.1430318,1364
1749979818.1431246,1143
1749979818.1432,1037
1749979818.1432707,1233
1749979818.1433437,1704
1749979818.1434138,2140
1749979818.1434858,2293
1749979818.1435585,2162
1749979818.1436281,1888
1749979818.1437004,1610
1749979818.1437714,1369
1749979818.143844,1131
1749979818.1439154,988
1749979818.143986,1165
1749979818.144056,1675
1749979818.1441278,2201
1749979818.1441998,2417
1749979818.144271,2293
1749979818.1443403,2004
1749979818.1444094,1737
1749979818.1444814,1526
1749979818.1445525,1292
1749979818.1446235,1063
1749979818.144696,1094
1749979818.1447656,1502
1749979818.1448376,2047
1749979818.1449103,2356
1749979818.144982,2322
1749979818.1450663,2067
1749979818.145139,1791
1749979818.1452088,1562
1749979818.1452837,1329
1749979818.145356,1084
1749979818.1454284,1060
1749979818.1455,1409
1749979818.1455715,1951
1749979818.1456435,2305
1749979818.1457157,2319
1749979818.1457858,2083
1749979818.145858,1795
1749979818.173782,1548
1749979818.1825001,1318
1749979818.209168,1079
1749979818.209568,1036
1749979818.2101831,1367
1749979818.2178192,1930
1749979818.2186368,2335
1749979818.218746,2386
1749979818.2188513,2163
1749979818.2189567,1878
1749979818.2190616,1645
1749979818.2191668,1429
1749979818.2192922,1168
1749979818.2193968,1038
1749979818.219501,1271
1749979818.21962,1807
1749979818.2197247,2262
1749979818.2198284,2372
1749979818.2199323,2179
1749979818.2200358,1893
1749979818.2201395,1656
1749979818.220286,1451
1749979818.220486,1197
1749979818.2209835,1027
1749979818.2210891,1209
1749979818.2211926,1744
1749979818.221534,2265
1749979818.2216425,2441
1749979818.2217813,2272
1749979818.2222922,1969
1749979818.2223985,1715
1749979818.223385,1518
1749979818.2385533,1277
1749979818.238637,1059
1749979818.238709,1137
1749979818.2387807,1590
1749979818.238853,2124
1749979818.238924,2379
1749979818.2389956,2288
1749979818.2390664,2004
1749979818.2391376,1727
1749979818.2392108,1515
1749979818.2392814,1299
1749979818.2393532,1087
1749979818.2396138,1102
1749979818.2396858,1459
1749979818.2397566,1954
1749979818.239827,2247
1749979818.2398975,2234
1749979818.2399678,1998
1749979818.2400382,1707
1749979818.240108,1450
1749979818.24018,1226
1749979818.2402503,1037
1749979818.240321,1069
1749979818.240391,1429
1749979818.2404618,1943
1749979818.2436137,2274
1749979818.2694385,2294
1749979818.3046803,2074
1749979818.320653,1785
1749979818.3261065,1529
1749979818.3262436,1310
1749979818.3263202,1097
1749979818.326381,1041
1749979818.3264582,1295
1749979818.326553,1768
1749979818.3266325,2147
1749979818.3267107,2252
1749979818.3267891,2099
1749979818.326867,1825
1749979818.3275044,1543
1749979818.3275938,1294
1749979818.3276823,1066
1749979818.3277488,1000
1749979818.3278697,1268
1749979818.3279517,1793
1749979818.3280323,2231
1749979818.328113,2354
1749979818.3281927,2188
1749979818.3282957,1904
1749979818.3283768,1640
1749979818.3284657,1410
1749979818.3285468,1161
1749979818.328627,1004
1749979818.3611627,1175
1749979818.400491,1679
1749979818.4006903,2187
1749979818.4007719,2389
1749979818.4008517,2268
1749979818.400931,1995
1749979818.40101,1737
1749979818.4010892,1516
1749979818.4011714,1261
1749979818.40125,1044
1749979818.4013286,1134
1749979818.401408,1604
1749979818.4014874,2158
1749979818.4015658,2427
1749979818.4016445,2341
1749979818.4017346,2061
1749979818.4018142,1790
1749979818.4018924,1572
1749979818.4019706,1332
1749979818.4020488,1088
1749979818.4021275,1104
1749979818.44376,1514
1749979818.443852,2081
1749979818.4439821,2406
1749979818.4441764,2367
1749979818.4448597,2098
1749979818.4461339,1821
1749979818.4462326,1604
1749979818.446335,1381
1749979818.446431,1130
1749979818.4465413,1089
1749979818.4466527,1440
1749979818.4467654,2008
1749979818.4468777,2386
1749979818.4469893,2399
1749979818.447101,2153
1749979818.4472132,1870
1749979818.447325,1642
1749979818.4474354,1424
1749979818.4475474,1169
1749979818.4476662,1078
1749979818.4477766,1365
1749979818.453409,1923
1749979818.454616,2355
1749979818.455443,2435
1749979818.4575365,2223
1749979818.4576526,1928
1749979818.4577582,1682
1749979818.457864,1472
1749979818.4579692,1225
1749979818.4580734,1073
1749979818.4582055,1242
1749979818.4615955,1711
1749979818.4617085,2150
1749979818.4618325,2300
1749979818.46194,2160
1749979818.4620605,1886
1749979818.528028,1619
1749979818.542956,1389
1749979818.5433242,1150
1749979818.548059,1008
1749979818.5806086,1192
1749979818.5912178,1705
1749979818.6227512,2215
1749979818.6228929,2403
1749979818.6649873,2258
1749979818.6760235,1964
1749979818.6921494,1702
1749979818.6946154,1495
1749979818.6946933,1256
1749979818.6947677,1039
1749979818.6948411,1112
1749979818.6949136,1569
1749979818.6949856,2126
1749979818.6950748,2402
1749979818.6951494,2315
1749979818.6952212,2030
1749979818.6952999,1763
1749979818.695372,1557
1749979818.695444,1324
1749979818.6955163,1066
1749979818.6955888,1044
1749979818.695661,1418
1749979818.6957333,1980
1749979818.6958055,2327
1749979818.6958778,2314
1749979818.6959498,2056
1749979818.6960218,1773
1749979818.696094,1547
1749979818.6961656,1330
1749979818.6962376,1087
1749979818.69631,1033
1749979818.6963823,1352
1749979818.6964543,1900
1749979818.6965272,2290
1749979818.6965995,2332
1749979818.6966712,2097
1749979818.6967432,1795
1749979818.6968157,1546
1749979818.6968882,1341
1749979818.6969604,1120
1749979818.697033,1028
1749979818.697163,1254
1749979818.697247,1737
1749979818.6973197,2147
1749979818.6973915,2270
1749979818.6981642,2111
1749979818.6982255,1822
1749979818.7076826,1542
1749979818.7077572,1316
1749979818.7078247,1107
1749979818.7078912,1011
1749979818.7079582,1201
1749979818.7080247,1652
1749979818.7080905,2072
1749979818.7081573,2232
1749979818.708378,2120
1749979818.708457,1858
1749979818.7085233,1577
1749979818.708589,1326
1749979818.7086546,1085
1749979818.7087207,955
1749979818.7087862,1148
1749979818.7088523,1664
1749979818.7089183,2186
1749979818.7089849,2397
1749979818.709052,2274
1749979818.7091203,1984
1749979818.7091942,1715
1749979818.7092602,1500
1749979818.7093263,1263
1749979818.7093923,1043
1749979818.7094579,1096
1749979818.7095234,1529
1749979818.7095895,2081
1749979818.7096558,2377
1749979818.7112634,2321
1749979818.7115824,2056
1749979818.7126615,1789
1749979818.7211654,1569
1749979818.7212725,1320
1749979818.7213447,1055
1749979818.721416,1048
1749979818.7214868,1464
1749979818.7215579,2075
1749979818.7216287,2443
1749979818.7217011,2411
1749979818.7217927,2125
1749979818.721866,1838
1749979818.7219388,1630
1749979818.7220113,1414
1749979818.7220836,1134
1749979818.7222903,1033
1749979818.7224236,1342
1749979818.7224972,1928
1749979818.7225716,2358
1749979818.7226455,2406
1749979818.7227182,2161
1749979818.7227974,1868
1749979818.722871,1648
1749979818.7229435,1445
1749979818.7230163,1179
1749979818.7230892,1036
1749979818.7231617,1267
1749979818.723234,1810
1749979818.7233062,2268
1749979818.7233796,2372
1749979818.723454,2168
1749979818.723527,1875
1749979818.7235997,1634
1749979818.7236724,1426
1749979818.723745,1175
1749979818.723817,1023
1749979818.72389,1228
1749979818.7239625,1772
1749979818.7240355,2283
1749979818.724108,2444
1749979818.7241805,2270
1749979818.724253,1969
1749979818.7243261,1718
1749979818.7243989,1520
1749979818.7244718,1280
1749979818.7245448,1067
1749979818.724617,1141
1749979818.7246892,1574
1749979818.724769,2078
1749979818.7248478,2319
1749979818.7249198,2234
1749979818.7249932,1964
1749979818.7390406,1688
1749979818.7428048,1461
1749979818.7428844,1233
1749979818.7429588,1037
1749979818.7430322,1099
1749979818.7431078,1510
1749979818.7431817,2032
1749979818.7432554,2315
1749979818.7433295,2267
1749979818.7434034,2007
1749979818.7434783,1725
1749979818.743552,1494
1749979818.743627,1270
1749979818.743702,1049
1749979818.7437751,1052
1749979818.7438488,1420
1749979818.7439225,1965
1749979818.7439961,2309
1749979818.7440693,2309
1749979818.7441428,2065
1749979818.7442162,1785
1749979818.7442906,1553
1749979818.744364,1325
1749979818.7444437,1073
1749979818.7445173,1018
1749979818.7445908,1355
1749979818.7446675,1940
1749979818.74475,2357
1749979818.744828,2399
1749979818.7449195,2159
1749979818.7449982,1876
1749979818.7785385,1657
1749979818.7786548,1442
1749979818.77876,1158
1749979818.812055,999
1749979818.9177873,1233
1749979818.9268026,1801
1749979818.9268875,2288
1749979818.9269838,2403
1749979818.9270608,2196
1749979818.927149,1907
1749979818.9272227,1685
1749979818.927305,1491
1749979818.9273782,1221
1749979818.9274514,1019
1749979818.9275239,1184
1749979818.927597,1729
1749979818.92767,2268
1749979818.927743,2447
1749979818.9278157,2267
1749979818.9278882,1961
1749979818.9590049,1724
1749979818.9591422,1545
1749979818.9592426,1302
1749979818.959342,1064
1749979818.9652672,1128
1749979818.9653845,1588
1749979818.9654927,2136
1749979818.9722562,2384
1749979818.9723687,2269
1749979818.9732988,1972
1749979818.9889674,1709
1749979818.9890795,1515
1749979818.9891875,1295
1749979818.9892943,1062
1749979818.9894001,1081
1749979818.9895065,1490
1749979818.9896123,2047
1749979818.9897172,2355
1749979818.9930663,2299
1749979819.0070806,2020
1749979819.007249,1740
1749979819.0073504,1530
1749979819.007449,1323
1749979819.0076504,1091
1749979819.0078452,1056
1749979819.0332816,1393
1749979819.0822704,1934
1749979819.0825772,2296
1749979819.0842645,2315
1749979819.0892782,2080
1749979819.0894146,1795
1749979819.0895476,1561
1749979819.0896785,1349
1749979819.0898101,1117
1749979819.0899408,1046
1749979819.0900714,1322
1749979819.1023543,1841
1749979819.1025622,2242
1749979819.1030664,2323
1749979819.1031814,2131
1749979819.1032877,1844
1749979819.1048896,1587
1749979819.1049967,1370
1749979819.1051128,1144
1749979819.1052303,1043
1749979819.1053355,1258
1749979819.107465,1743
1749979819.107577,2170
1749979819.1076822,2305
1749979819.109213,2161
1749979819.1093264,1890
1749979819.109431,1621
1749979819.109505,1383
1749979819.1095924,1140
1749979819.1096642,1005
1749979819.1097357,1200
1749979819.109807,1717
1749979819.1098778,2226
1749979819.1099482,2425
1749979819.110036,2298
1749979819.1101177,2010
1749979819.1101902,1737
1749979819.1102617,1517
1749979819.110373,1286
1749979819.1104486,1085
1749979819.110522,1140
1749979819.1105952,1532
1749979819.1108382,2021
1749979819.110914,2289
1749979819.1109874,2253
1749979819.1110613,2010
1749979819.1111348,1728
1749979819.1112082,1481
1749979819.111282,1246
1749979819.111356,1047
1749979819.1114295,1090
1749979819.1115031,1471
1749979819.1115763,1980
1749979819.1116498,2276
1749979819.11174,2259
1749979819.1118157,2027
1749979819.1118896,1751
1749979819.1119637,1502
1749979819.1120496,1257
1749979819.1121235,1029
1749979819.1121976,1052
1749979819.1122715,1471
1749979819.1123457,2079
1749979819.1124196,2457
1749979819.1124935,2444
1749979819.112567,2173
1749979819.112641,1891
1749979819.112715,1682
1749979819.112789,1470
1749979819.1128623,1182
1749979819.112936,1034
