1750241225.543742,1908
1750241225.5803728,1614
1750241225.6197958,1366
1750241225.6198761,1519
1750241225.6199627,2141
1750241225.620034,2792
1750241225.6201034,3009
1750241225.6207786,2772
1750241225.6208603,2357
1750241225.62102,2015
1750241225.6210992,1758
1750241225.6211746,1473
1750241225.6212502,1246
1750241225.6213248,1431
1750241225.6214006,2121
1750241225.621476,2889
1750241225.62155,3187
1750241225.6216722,2952
1750241225.6218386,2499
1750241225.6219842,2155
1750241225.6221287,1925
1750241225.6615973,1636
1750241225.661706,1296
1750241225.661811,1307
1750241225.662075,1899
1750241225.6622224,2734
1750241225.6623132,3173
1750241225.6623888,3028
1750241225.6624606,2579
1750241225.662544,2213
1750241225.6626284,1986
1750241225.662712,1725
1750241225.6627958,1356
1750241225.6628792,1238
1750241225.6629624,1680
1750241225.6630461,2473
1750241225.6631296,3006
1750241225.6632135,2995
1750241225.663297,2614
1750241225.6633801,2222
1750241225.6634636,1943
1750241225.663547,1693
1750241225.663631,1374
1750241225.6637192,1233
1750241225.6637983,1554
1750241225.6638803,2235
1750241225.6650317,2769
1750241225.6729953,2853
1750241225.6745863,2564
1750241225.6756258,2171
1750241225.6757603,1826
1750241225.6758983,1544
1750241225.6760557,1270
1750241225.6761832,1178
1750241225.6763072,1506
1750241225.6764297,2180
1750241225.6766033,2747
1750241225.676731,2888
1750241225.6768553,2646
1750241225.677017,2260
1750241225.677142,1901
1750241225.6772656,1603
1750241225.680082,1312
1750241225.6817086,1155
1750241225.6838293,1391
1750241225.6841073,2016
1750241225.6842477,2630
1750241225.6953447,2855
1750241225.69704,2684
1750241225.697442,2325
1750241225.6980286,1962
1750241225.6981378,1633
1750241225.698244,1299
1750241225.698349,1078
1750241225.6985343,1278
1750241225.698647,1945
1750241225.6990101,2681
1750241225.69912,3006
1750241225.6992269,2858
1750241225.699331,2468
1750241225.6994357,2098
1750241225.6995451,1795
1750241225.699649,1471
1750241225.699753,1155
1750241225.6998563,1176
1750241225.6999605,1696
1750241225.7000687,2429
1750241225.700173,2853
1750241225.700277,2807
1750241225.70038,2465
1750241225.7004838,2107
1750241225.7005944,1800
1750241225.700698,1464
1750241225.7008007,1113
1750241225.7009041,1103
1750241225.7010071,1673
1750241225.7010949,2547
1750241225.7012265,3090
1750241225.7012985,3041
1750241225.7013695,2625
1750241225.701441,2233
1750241225.7015367,1965
1750241225.7016273,1676
1750241225.7017055,1267
1750241225.70182,1090
1750241225.7018926,1520
1750241225.7026265,2410
1750241225.7045562,3090
1750241225.7047067,3151
1750241225.7048445,2746
1750241225.7049816,2311
1750241225.7051518,2042
1750241225.7052982,1815
1750241225.7054381,1441
1750241225.7096627,1135
1750241225.7097528,1303
1750241225.7098277,1973
1750241225.7099009,2633
1750241225.7100787,2841
1750241225.7102084,2602
1750241225.7103565,2207
1750241225.7105067,1865
1750241225.710648,1571
1750241225.7107818,1238
1750241225.7109337,1050
1750241225.7112427,1341
1750241225.7114046,2091
1750241225.7115505,2778
1750241225.713016,2941
1750241225.7133176,2630
1750241225.7140892,2201
1750241225.7141654,1912
1750241225.714237,1717
1750241225.7143154,1438
1750241225.7143896,1158
1750241225.7144594,1247
1750241225.7145298,1819
1750241225.7146,2484
1750241225.7146704,2755
1750241225.7147365,2588
1750241225.7148068,2251
1750241225.714877,1990
1750241225.71502,1773
1750241225.715138,1464
1750241225.7152405,1135
1750241225.7153425,1166
1750241225.7154438,1707
1750241225.715546,2404
1750241225.7156477,2717
1750241225.715749,2549
1750241225.715851,2165
1750241225.7159522,1869
1750241225.7160535,1669
1750241225.716155,1423
1750241225.7162573,1122
1750241225.7163546,1113
1750241225.7164562,1619
1750241225.7165575,2374
1750241225.7166593,2801
1750241225.7167606,2697
1750241225.7168615,2286
1750241225.7169628,1931
1750241225.7170675,1723
1750241225.7171702,1521
1750241225.7172823,1209
1750241225.717384,1058
1750241225.7174857,1372
1750241225.7175875,2049
1750241225.7176893,2566
1750241225.717793,2618
1750241225.7179055,2310
1750241225.718007,1956
1750241225.7330177,1693
1750241225.7331338,1452
1750241225.7332397,1127
1750241225.7333448,959
1750241225.733449,1280
1750241225.733552,2035
1750241225.7336557,2679
1750241225.733769,2819
1750241225.7338736,2525
1750241225.7340112,2137
1750241225.7341168,1852
1750241225.734221,1603
1750241225.7343247,1239
1750241225.736222,957
1750241225.7363315,1161
1750241225.7364354,1893
1750241225.7365737,2627
1750241225.7366781,2856
1750241225.736782,2587
1750241225.7368855,2180
1750241225.736988,1904
1750241225.7370915,1696
1750241225.7371948,1344
1750241225.737298,958
1750241225.7374005,993
1750241225.737505,1626
1750241225.737609,2418
1750241225.737712,2779
1750241225.7378154,2594
1750241225.7379055,2177
1750241225.7379766,1861
1750241225.7380478,1653
1750241225.7381182,1351
1750241225.738188,978
1750241225.7382584,969
1750241225.7383292,1565
1750241225.7384098,2405
1750241225.7399871,2848
1750241225.740095,2707
1750241225.76973,2271
1750241225.7698665,1924
1750241225.7700317,1712
1750241225.7701497,1431
1750241225.7703068,1029
1750241225.7705712,919
1750241225.7707248,1430
1750241225.77086,2300
1750241225.7711167,2858
1750241225.7712522,2811
1750241225.7713873,2382
1750241225.771545,1994
1750241225.7716534,1770
1750241225.7717202,1542
1750241225.771853,1162
1750241225.7721977,930
1750241225.772271,1206
1750241225.7723413,1910
1750241225.7724109,2495
1750241225.7724812,2610
1750241225.7725506,2326
1750241225.7726202,1951
1750241225.7726896,1650
1750241225.7727594,1388
1750241225.772832,1068
1750241225.7729049,905
1750241225.7729778,1199
1750241225.77305,1890
1750241225.773123,2482
1750241225.7731957,2619
1750241225.7732677,2356
1750241225.773351,1982
1750241225.7734234,1672
1750241225.77349,1397
1750241225.7735548,1055
1750241225.773627,852
1750241225.7736998,1148
1750241225.7737718,1937
1750241225.7738442,2680
1750241225.7739167,2895
1750241225.7739892,2604
1750241225.774061,2169
1750241225.7741334,1859
1750241225.7742057,1629
1750241225.7742784,1283
1750241225.7743511,927
1750241225.7744234,991
1750241225.7744963,1634
1750241225.77457,2427
1750241225.774745,2807
1750241225.7748969,2658
1750241225.7750642,2257
1750241225.7754693,1918
1750241225.7760708,1671
1750241225.7764683,1351
1750241225.7770214,979
1750241225.7772908,936
1750241225.7774718,1444
1750241225.7775385,2198
1750241225.7777872,2643
1750241225.7778883,2590
1750241225.7779546,2227
1750241225.7780528,1862
1750241225.7781944,1579
1750241225.7782717,1271
1750241225.7783482,929
1750241225.7784367,906
1750241225.7785125,1445
1750241225.7785878,2275
1750241225.7786634,2791
1750241225.7787426,2744
1750241225.778819,2341
1750241225.7788954,1963
1750241225.7789717,1711
1750241225.7790473,1434
1750241225.7797418,1034
1750241225.779933,867
1750241225.7800844,1298
1750241225.7802057,2165
1750241225.7803671,2811
1750241225.7805517,2855
1750241225.7806718,2461
1750241225.780806,2059
1750241225.7809246,1818
1750241225.7810528,1586
1750241225.7811189,1179
1750241225.7812183,877
1750241225.781337,1118
1750241225.7817144,1894
1750241225.7818456,2616
1750241225.7819648,2809
1750241225.7821994,2509
1750241225.782374,2086
1750241225.7825089,1782
1750241225.782655,1548
1750241225.7828178,1210
1750241225.7829492,923
1750241225.7830083,1069
1750241225.7830782,1721
1750241225.7832074,2416
1750241225.7833707,2685
1750241225.7834363,2481
1750241225.7835014,2081
1750241225.783566,1739
1750241225.7836308,1479
1750241225.7836955,1167
1750241225.78376,898
1750241225.783825,1030
1750241225.7838898,1676
1750241225.783954,2421
1750241225.7840185,2749
1750241225.7840834,2570
1750241225.784149,2157
1750241225.7842147,1810
1750241225.7842789,1556
1750241225.7843444,1235
1750241225.7844086,901
1750241225.7844732,969
1750241225.7845376,1643
1750241225.7846024,2527
1750241225.7846675,2975
1750241225.784732,2811
1750241225.7847967,2347
1750241225.7848618,1994
1750241225.7849264,1793
1750241225.7849905,1507
1750241225.7850544,1060
1750241225.7851348,884
1750241225.7851996,1343
1750241225.7852638,2204
1750241225.7853284,2792
1750241225.7853923,2782
1750241225.7854505,2370
1750241225.785513,1983
1750241225.785612,1751
1750241225.7859797,1498
1750241225.7861273,1093
1750241225.7862842,881
1750241225.786418,1249
1750241225.7865372,2069
1750241225.786674,2700
1750241225.7868073,2761
1750241225.7869592,2386
1750241225.7870657,1979
1750241225.787171,1714
1750241225.7873094,1468
1750241225.787435,1092
1750241225.7875984,876
1750241225.7877522,1229
1750241225.7879126,2088
1750241225.7880652,2815
1750241225.7882035,2945
1750241225.7882729,2567
1750241225.7883391,2109
1750241225.7885203,1823
1750241225.7886922,1620
1750241225.7888741,1278
1750241225.789009,954
1750241225.7891867,1064
1750241225.7893133,1708
1750241225.7894511,2417
1750241225.8027883,2704
1750241225.802928,2509
1750241225.8030694,2102
1750241225.8032095,1739
1750241225.803349,1460
1750241225.8034892,1150
1750241225.8036218,899
1750241225.803815,1028
1750241225.8039541,1628
1750241225.8040946,2319
1750241225.8042326,2645
1750241225.804366,2518
1750241225.8045068,2137
1750241225.8046577,1752
1750241225.8047974,1438
1750241225.8049362,1125
1750241225.8050709,864
1750241225.8052106,967
1750241225.8053489,1556
1750241225.8054867,2294
1750241225.8056188,2683
1750241225.805797,2596
1750241225.8087242,2231
1750241225.8167264,1862
1750241225.8170905,1548
1750241225.8178551,1192
1750241225.8287165,839
1750241225.8289077,880
1750241225.8290925,1532
1750241225.829276,2452
1750241225.8294604,2987
1750241225.829525,2911
1750241225.829663,2478
1750241225.8298464,2083
1750241225.8300295,1801
1750241225.8302119,1461
1750241225.8305702,1003
1750241225.830645,835
1750241225.830719,1323
1750241225.830861,2252
1750241225.8310337,2923
1750241225.8310938,2976
1750241225.8312194,2592
1750241225.831402,2176
1750241225.8315833,1859
1750241225.8317573,1508
1750241225.8319407,1032
1750241225.8321247,784
1750241225.832312,1157
1750241225.832407,2030
1750241225.8325903,2750
1750241225.8327725,2902
1750241225.8329685,2594
1750241225.8331513,2182
1750241225.833306,1833
1750241225.833479,1482
1750241225.8335388,1042
1750241225.833715,775
1750241225.8338985,1051
1750241225.8340836,1822
1750241225.8342662,2535
1750241225.8344142,2768
1750241225.834569,2567
1750241225.834712,2208
1750241225.8348548,1844
1750241225.8349729,1460
1750241225.8350716,1024
1750241225.8410785,773
1750241225.8411918,1060
1750241225.841296,1847
1750241225.8413985,2606
1750241225.841581,2876
1750241225.8416831,2691
1750241225.8417916,2336
1750241225.8418944,2006
1750241225.8419962,1678
1750241225.842098,1269
1750241225.842213,921
1750241225.8423154,992
1750241225.8424175,1563
1750241225.8425188,2245
1750241225.8426206,2573
1750241225.8427227,2496
1750241225.842824,2221
1750241225.8429253,1935
1750241225.8431158,1626
1750241225.8432178,1236
1750241225.8433192,886
1750241225.843421,950
1750241225.8435225,1560
1750241225.843621,2350
1750241225.8436906,2761
1750241225.8437595,2669
1750241225.8438287,2308
1750241225.843898,1969
1750241225.843967,1691
1750241225.8440363,1376
1750241225.844111,1025
1750241225.8441834,974
1750241225.8442526,1448
1750241225.8443215,2208
1750241225.8443904,2694
1750241225.8444593,2690
1750241225.844528,2382
1750241225.844597,2078
1750241225.8446655,1840
1750241225.844734,1549
1750241225.8448029,1149
1750241225.8448715,961
1750241225.84494,1313
1750241225.8450081,2072
1750241225.8451135,2655
1750241225.845556,2720
1750241225.8457434,2399
1750241225.8458824,2047
1750241225.8460183,1801
1750241225.8461642,1555
1750241225.8463135,1182
1750241225.8464558,946
1750241225.8465905,1249
1750241225.8470283,2059
1750241225.847386,2780
1750241225.8477182,2933
1750241225.8480864,2591
1750241225.848387,2163
1750241225.8534346,1902
1750241225.8546014,1717
1750241225.854757,1383
1750241225.8549132,1029
1750241225.8550994,1093
1750241225.8553092,1714
1750241225.8554485,2444
1750241225.8555875,2749
1750241225.8557088,2558
1750241225.8558297,2169
1750241225.8559654,1870
1750241225.8560755,1669
1750241225.8562007,1394
1750241225.8563426,1073
1750241225.8564575,1060
1750241225.856579,1536
1750241225.8567157,2202
1750241225.8568501,2568
1750241225.856969,2490
1750241225.8570936,2138
1750241225.8572261,1782
1750241225.8573477,1511
1750241225.8574793,1249
1750241225.8590984,990
1750241225.8591743,1013
1750241225.859246,1487
1750241225.8593168,2169
1750241225.8598375,2570
1750241225.8599024,2518
1750241225.8600128,2171
1750241225.8602393,1821
1750241225.860447,1554
1750241225.86067,1275
1750241225.8609183,952
1750241225.8611538,921
1750241225.8613636,1452
1750241225.8616524,2320
1750241225.8618767,2894
1750241225.8622808,2870
1750241225.9050457,2450
1750241225.9360092,2062
1750241225.983784,1841
1750241225.9997792,1599
1750241226.0109732,1169
1750241226.0484064,897
1750241226.0813475,1241
1750241226.2388105,2129
1750241226.239003,2879
1750241226.239829,3001
1750241226.2430792,2609
1750241226.2861059,2182
1750241226.3117776,1951
1750241226.3284624,1745
1750241226.3501294,1313
1750241226.3606367,918
1750241226.3859878,1089
1750241226.4461656,1901
1750241226.4689028,2721
1750241226.5463505,2958
1750241226.5524604,2620
1750241226.5531754,2156
1750241226.6101367,1880
1750241226.6733134,1695
1750241226.7158158,1332
1750241226.7912514,936
1750241226.797625,1020
1750241226.8038468,1754
1750241226.875228,2603
1750241226.938737,2930
1750241226.9555535,2656
1750241227.0582232,2179
1750241227.0901396,1870
1750241227.130532,1697
1750241227.28252,1390
1750241227.3037584,992
1750241227.3262208,988
1750241227.3707592,1633
1750241227.4261172,2501
1750241227.4366992,2921
1750241227.474094,2722
1750241227.4825253,2244
1750241227.4825966,1901
1750241227.4829307,1721
1750241227.5072234,1446
1750241227.5817928,1033
1750241227.654137,935
1750241227.6999104,1480
1750241227.7492385,2358
1750241227.752998,2878
1750241227.7543192,2770
1750241227.7547128,2309
1750241227.7557406,1939
1750241227.7559636,1746
1750241227.7620525,1505
1750241227.7623222,1094
1750241227.764217,913
1750241227.764365,1353
1750241227.9877791,2227
1750241228.0898926,2846
1750241228.1343014,2846
1750241228.1679716,2411
1750241228.1680512,1993
1750241228.1681159,1760
1750241228.16818,1549
1750241228.1682496,1174
1750241228.1683123,923
1750241228.1683753,1204
1750241228.1686304,1969
1750241228.1692536,2627
1750241228.1696103,2757
1750241228.199253,2426
1750241228.2501323,2006
1750241228.2794745,1708
1750241228.3197827,1461
1750241228.3999934,1110
1750241228.4680457,876
1750241228.4979537,1151
1750241228.5064504,1931
1750241228.5079017,2654
1750241228.5465012,2848
1750241228.6221204,2538
1750241228.6440427,2084
1750241228.7104378,1746
1750241228.7732937,1492
1750241228.8215072,1152
1750241228.8902626,868
1750241228.953442,1049
1750241228.966296,1780
1750241228.971864,2572
1750241229.0558598,2896
1750241229.1270745,2690
1750241229.1869917,2242
1750241229.1976569,1830
1750241229.2202923,1491
1750241229.2205088,1121
1750241229.223286,836
1750241229.2295263,1011
1750241229.2565815,1728
1750241229.2910683,2540
1750241229.3132946,2911
1750241229.346742,2778
1750241229.4022508,2399
1750241229.4142737,2022
1750241229.4689996,1657
1750241229.508169,1218
1750241229.519658,811
1750241229.5574925,842
1750241229.6081364,1475
1750241229.6608336,2335
1750241229.6784143,2836
1750241229.7407086,2817
1750241229.767133,2471
1750241229.813195,2071
1750241229.8814662,1685
1750241229.9172113,1260
1750241229.946228,837
1750241230.0821857,776
1750241230.1781657,1306
1750241230.1801748,2165
1750241230.1803794,2756
1750241230.180985,2815
1750241230.1810884,2483
1750241230.1812055,2075
1750241230.1813054,1720
1750241230.1814032,1364
1750241230.1815016,957
1750241230.1816158,806
1750241230.1817148,1229
1750241230.1818292,2085
1750241230.1819117,2766
1750241230.1819944,2894
1750241230.1821053,2574
1750241230.1821885,2171
1750241230.182272,1868
1750241230.1823547,1579
1750241230.1824372,1161
1750241230.1826682,880
1750241230.1827524,1170
1750241230.1828353,2020
1750241230.2011502,2814
1750241230.3023088,3027
1750241230.3089259,2695
1750241230.3090715,2232
1750241230.3091476,1916
1750241230.3092198,1667
1750241230.3092923,1272
1750241230.3093646,910
1750241230.3094358,1072
1750241230.309512,1871
1750241230.3095863,2746
1750241230.3096776,3067
1750241230.3097446,2778
1750241230.3098118,2286
1750241230.309878,1953
1750241230.3099477,1744
1750241230.3100145,1405
1750241230.3100798,1000
1750241230.3101478,1017
1750241230.3102136,1685
1750241230.3102813,2559
1750241230.3103473,2966
1750241230.3104143,2759
1750241230.3104823,2288
1750241230.3105516,1947
1750241230.3106232,1746
1750241230.3106909,1444
1750241230.3107574,1034
1750241230.3108218,982
1750241230.3108869,1593
1750241230.3109474,2507
1750241230.3110113,3011
1750241230.3110764,2863
1750241230.311141,2369
1750241230.3112013,1980
1750241230.3112636,1776
1750241230.3113298,1529
1750241230.3113945,1133
1750241230.3114612,984
1750241230.3115258,1445
1750241230.3115983,2302
1750241230.3116639,2873
1750241230.3117619,2825
1750241230.3118293,2370
1750241230.3118904,1961
1750241230.311955,1764
1750241230.3120205,1603
1750241230.3122618,1258
1750241230.3123293,1007
1750241230.3123953,1342
1750241230.3124616,2237
1750241230.3125281,2989
1750241230.3125935,3043
1750241230.3126624,2491
1750241230.3127356,1911
1750241230.3128016,1659
1750241230.3128676,1491
1750241230.3129346,931
1750241230.3130002,229
1750241230.3130617,319
1750241230.313126,1691
1750241230.3131936,3607
1750241230.3137703,4846
1750241230.326672,4892
1750241230.326758,4293
1750241230.3268282,3862
1750241230.3268964,3698
1750241230.3269582,3194
1750241230.327026,2156
1750241230.3270938,1313
1750241230.3271618,1424
1750241230.3272305,2293
1750241230.327299,3084
1750241230.3273776,3318
1750241230.3274467,3225
1750241230.3275154,3246
1750241230.3275902,3316
1750241230.3276584,2943
1750241230.3277352,2053
1750241230.3278074,1373
1750241230.32788,1553
1750241230.3279524,2353
1750241230.3280275,2976
1750241230.3281016,3047
1750241230.3281765,2835
1750241230.3282502,2783
1750241230.3283238,2832
1750241230.3284118,2584
1750241230.3285496,1935
1750241230.328624,1476
1750241230.3286982,1761
1750241230.3287718,2590
1750241230.328845,3185
1750241230.3289175,3155
1750241230.3289905,2747
1750241230.3290637,2465
1750241230.3291383,2397
1750241230.3292189,2226
1750241230.3293095,1732
1750241230.3293898,1332
1750241230.3294704,1563
1750241230.3295507,2364
1750241230.3296313,3046
1750241230.329712,3147
1750241230.3297918,2767
1750241230.3298714,2344
1750241230.3299518,2089
1750241230.3300316,1855
1750241230.330112,1442
1750241230.3301923,1145
1750241230.3302724,1438
1750241230.3303516,2300
1750241230.3304324,3072
1750241230.3305125,3236
1750241230.3305914,2842
1750241230.33067,2332
1750241230.3307486,1987
1750241230.3308272,1726
1750241230.3309057,1328
1750241230.330979,1014
1750241230.3310502,1288
1750241230.3311288,2215
1750241230.3312078,3143
1750241230.3312907,3434
1750241230.3313694,3069
1750241230.3314478,2507
1750241230.3315277,2119
1750241230.331606,1843
1750241230.331684,1404
1750241230.3391502,939
1750241230.3392985,1013
1750241230.33937,1844
1750241230.3394418,2858
1750241230.3413124,3305
1750241230.364876,3040
1750241230.3649485,2484
1750241230.3650155,2095
1750241230.3650997,1872
1750241230.3651676,1511
1750241230.3652344,1030
1750241230.365303,984
1750241230.3653743,1707
1750241230.3654377,2746
1750241230.365504,3292
1750241230.3655748,3089
1750241230.3656464,2513
1750241230.3657172,2075
1750241230.3657887,1839
1750241230.3658593,1513
1750241230.3659303,1022
1750241230.3660014,889
1750241230.3660722,1538
1750241230.3661427,2629
1750241230.3662136,3310
1750241230.3662841,3198
1750241230.3663542,2598
1750241230.3664253,2084
1750241230.3664958,1826
1750241230.3665664,1573
1750241230.3666365,1127
1750241230.3667128,875
1750241230.3667831,1286
1750241230.366854,2223
1750241230.3669245,2950
1750241230.3669872,3004
1750241230.3670506,2524
1750241230.3671215,1993
1750241230.367192,1655
1750241230.3672626,1393
1750241230.3673334,1024
1750241230.3674037,823
1750241230.3674738,1215
1750241230.3675444,2134
1750241230.3676145,2905
1750241230.367685,3031
1750241230.367756,2592
1750241230.3678257,2046
1750241230.3678958,1678
1750241230.367966,1411
1750241230.368036,1045
1750241230.368106,804
1750241230.3681762,1155
1750241230.3682463,2113
1750241230.3683167,3005
1750241230.3683877,3219
1750241230.4058506,2788
1750241230.4228272,2215
1750241230.426326,1863
1750241230.4266949,1636
1750241230.427049,1240
1750241230.4274137,824
1750241230.4277773,962
1750241230.4281404,1841
1750241230.4285448,2848
1750241230.4289095,3226
1750241230.429276,2878
1750241230.4296143,2286
1750241230.4299762,1907
1750241230.430343,1697
1750241230.4307039,1334
1750241230.4310577,874
1750241230.4358604,900
1750241230.436253,1718
1750241230.4366162,2801
1750241230.4369786,3309
1750241230.4373374,3027
1750241230.437689,2398
1750241230.4380493,1962
1750241230.4384413,1761
1750241230.4388123,1471
1750241230.4391599,1004
1750241230.4395216,869
1750241230.4398823,1472
1750241230.4402401,2487
1750241230.4406,3111
1750241230.440961,3002
1750241230.4413214,2448
1750241230.466139,1974
1750241230.4776773,1723
1750241230.4778008,1467
1750241230.477909,1057
1750241230.4779768,890
1750241230.4780471,1385
1750241230.4781113,2346
1750241230.4781783,3025
1750241230.4782443,3008
1750241230.4783077,2493
1750241230.4783792,1984
1750241230.4784667,1687
1750241230.5020065,1432
1750241230.503367,1043
1750241230.5087621,858
1750241230.5090952,1335
1750241230.5094194,2361
1750241230.5097406,3172
1750241230.5100644,3244
1750241230.5103858,2729
1750241230.5107179,2178
1750241230.5110457,1872
1750241230.5122209,1647
1750241230.51236,1241
1750241230.5209122,911
1750241230.5210276,1202
1750241230.534431,2156
1750241230.6038342,3070
1750241230.6059322,3293
1750241230.6155486,2857
1750241230.708746,2282
1750241230.7136197,1944
1750241230.714965,1736
1750241230.7153833,1353
1750241230.7157202,931
1750241230.7160563,1024
1750241230.7163885,1829
1750241230.716744,2777
1750241230.7170775,3155
1750241230.717523,2853
1750241230.717859,2288
1750241230.7181914,1884
1750241230.7221365,1640
1750241230.7224915,1304
1750241230.7228568,930
1750241230.7233007,1027
1750241230.760603,1831
1750241230.7610657,2845
1750241230.7620475,3307
1750241230.7621706,3039
1750241230.762387,2440
1750241230.7731907,1999
1750241230.7736568,1769
1750241230.8032994,1479
1750241230.8363214,1067
1750241230.878466,1003
1750241230.933707,1635
1750241230.9663668,2626
1750241230.9903865,3217
1750241230.9921994,3101
1750241231.0072343,2564
1750241231.0350342,2097
1750241231.0360608,1826
1750241231.0361416,1537
1750241231.036214,1111
1750241231.036286,958
1750241231.0369413,1483
1750241231.0370173,2470
1750241231.0370884,3160
1750241231.0371656,3146
1750241231.0372365,2632
1750241231.0373068,2122
1750241231.037377,1819
1750241231.0374393,1556
1750241231.0375047,1157
1750241231.0375757,958
1750241231.0376427,1415
1750241231.037713,2423
1750241231.0701017,3237
1750241231.0941484,3335
1750241231.0943177,2839
1750241231.0956562,2275
1750241231.15843,1945
1750241231.1598146,1726
1750241231.1851587,1355
1750241231.1852393,1024
1750241231.1853094,1221
1750241231.1855247,2027
1750241231.1855977,2853
1750241231.1856692,3121
1750241231.1857402,2791
1750241231.1858115,2262
1750241231.1858826,1872
1750241231.1859534,1613
1750241231.186024,1284
1750241231.1860943,1010
1750241231.1861653,1231
1750241231.1862364,2055
1750241231.1863065,2938
1750241231.1863756,3253
1750241231.186445,2937
1750241231.1865141,2385
1750241231.1865923,1980
1750241231.1866615,1711
1750241231.1867304,1345
1750241231.1867993,976
1750241231.1868682,1131
1750241231.1869376,2024
1750241231.1870067,3095
1750241231.187076,3543
1750241231.1871457,3210
1750241231.1872153,2574
1750241231.1872845,2168
1750241231.1873536,1981
1750241231.1874223,1648
1750241231.1874917,1122
1750241231.18756,1002
1750241231.187629,1722
1750241231.1876981,2865
1750241231.1877673,3516
1750241231.1878362,3326
1750241231.187905,2699
1750241231.1879742,2252
1750241231.1880434,2069
1750241231.188112,1787
1750241231.1881812,1249
1750241231.1882503,995
1750241231.1883194,1564
1750241231.1883883,2693
1750241231.1884654,3459
1750241231.1885388,3379
1750241231.1886094,2762
1750241231.1886795,2249
1750241231.1887496,2035
1750241231.1888196,1817
1750241231.1888895,1340
1750241231.1889603,1018
1750241231.1890302,1431
1750241231.1891005,2481
1750241231.1891704,3327
1750241231.1892412,3384
1750241231.1893115,2829
1750241231.1893814,2271
1750241231.189452,2006
1750241231.1895232,1824
1750241231.189593,1417
1750241231.2110817,1051
1750241231.23573,1302
1750241231.2358136,2228
1750241231.235892,3113
1750241231.2359693,3310
1750241231.2360468,2861
1750241231.2361224,2293
1750241231.2375147,1968
1750241231.2377207,1775
1750241231.2378004,1419
1750241231.2415023,1064
1750241231.2421758,1263
1750241231.24296,2157
1750241231.2430453,3113
1750241231.2431245,3417
1750241231.2432766,3024
1750241231.2433565,2426
1750241231.2434354,2061
1750241231.2435124,1872
1750241231.2435966,1543
1750241231.2436752,1128
1750241231.2477026,1178
1750241231.2477758,1961
1750241231.2478466,2964
1750241231.247917,3410
1750241231.2479882,3127
1750241231.2480588,2537
1750241231.2481294,2129
1750241231.2481997,1925
1750241231.2482703,1608
1750241231.2483397,1121
1750241231.2484388,1009
1750241231.248509,1698
1750241231.2485795,2818
1750241231.248649,3483
1750241231.2487178,3309
1750241231.2487867,2664
1750241231.2488554,2192
1750241231.2489243,2031
1750241231.2489934,1806
1750241231.2490623,1288
1750241231.2491312,998
1750241231.2491999,1527
1750241231.249269,2615
1750241231.2493384,3128
1750241231.2494078,2344
1750241231.2494674,710
1750241231.2495377,-487
1750241231.2496102,-398
1750241231.2496793,720
1750241231.2497509,1885
1750241231.2498214,2564
1750241231.2498906,2928
1750241231.2499602,3333
1750241231.250029,3697
1750241231.2500985,3741
1750241231.250169,3272
1750241231.2502398,2402
1750241231.25031,1407
1750241231.2503805,647
1750241231.2504497,383
1750241231.250519,827
1750241231.2505903,1896
1750241231.2506602,3116
1750241231.2507298,3821
1750241231.2507982,3741
1750241231.250868,3094
1750241231.250937,2278
1750241231.250998,1548
1750241231.2510564,1046
1750241231.2511263,871
1750241231.2511954,1177
1750241231.2512646,1976
1750241231.2513337,2914
1750241231.2514029,3416
1750241231.2514818,3246
1750241231.251551,2682
1750241231.25162,2145
1750241231.2516894,1822
1750241231.2517738,1628
1750241231.2518437,1418
1750241231.251912,1326
1750241231.2519817,1665
1750241231.252051,2413
1750241231.2523673,3066
1750241231.252441,3168
1750241231.2525115,2795
1750241231.2525826,2339
1750241231.2526534,2082
1750241231.252724,1948
1750241231.2527943,1699
1750241231.2528653,1370
1750241231.2529588,1377
1750241231.253036,1924
1750241231.2531064,2650
1750241231.2531767,2990
1750241231.2532473,2826
1750241231.2533178,2434
1750241231.2533867,2138
1750241231.2534497,1948
1750241231.2535188,1673
1750241231.2535892,1300
1750241231.253661,1231
1750241231.2537322,1739
1750241231.2538025,2537
1750241231.253873,3003
1750241231.253944,2912
1750241231.2540147,2501
1750241231.2540848,2147
1750241231.2541552,1929
1750241231.2542446,1679
1750241231.2546816,1304
1750241231.2547543,1156
1750241231.3059754,1578
1750241231.3324747,2401
1750241231.332558,2992
1750241231.3326347,3011
1750241231.3327098,2612
1750241231.3327854,2195
1750241231.3335783,1937
1750241231.33366,1729
1750241231.3367534,1403
1750241231.3372796,1180
1750241231.3377137,1409
1750241231.337806,2074
1750241231.338179,2674
1750241231.3383217,2831
1750241231.3391492,2569
1750241231.339857,2178
1750241231.3399656,1859
1750241231.3400567,1611
1750241231.342895,1316
1750241231.3429747,1126
1750241231.343098,1348
1750241231.343322,1997
1750241231.3437943,2627
1750241231.3442514,2836
1750241231.344811,2615
1750241231.3448896,2223
1750241231.3449643,1877
1750241231.3450403,1603
1750241231.345123,1293
1750241231.3451984,1072
1750241231.3452728,1282
1750241231.3453476,1989
1750241231.3454223,2740
1750241231.3454974,3033
1750241231.3618855,2815
1750241231.3631845,2386
1750241231.3632956,2047
1750241231.3691173,1816
1750241231.3715758,1512
1750241231.3716545,1168
1750241231.3717601,1174
1750241231.386081,1742
1750241231.386926,2524
1750241231.387784,2947
1750241231.388103,2841
1750241231.3883715,2442
1750241231.441793,2086
1750241231.4420295,1832
1750241231.4442317,1531
1750241231.4443426,1165
1750241231.4444463,1114
1750241231.4456158,1640
1750241231.4457273,2466
1750241231.4458334,2977
1750241231.4459376,2925
1750241231.446041,2512
1750241231.4475124,2115
1750241231.4476233,1854
1750241231.4477282,1598
1750241231.4478314,1242
1750241231.4486725,1088
1750241231.4487886,1447
1750241231.4488962,2181
1750241231.4491105,2736
1750241231.449219,2800
1750241231.4493246,2476
1750241231.4495306,2086
1750241231.449636,1780
1750241231.44974,1501
1750241231.449844,1164
1750241231.4499476,1034
1750241231.450057,1421
1750241231.450161,2217
1750241231.4502642,2848
1750241231.4503677,2948
1750241231.450471,2613
1750241231.4505746,2190
1750241231.450678,1866
1750241231.4507825,1582
1750241231.4595366,1215
1750241231.4596245,992
1750241231.4597695,1290
1750241231.4602504,2086
1750241231.4652288,2814
1750241231.4653606,3011
1750241231.4654279,2729
1750241231.465578,2318
1750241231.4790192,2011
1750241231.642128,1770
1750241231.7235653,1427
1750241231.7512515,1105
1750241231.777614,1227
1750241231.810706,1908
1750241231.810818,2674
1750241231.8109229,2986
1750241231.811026,2765
1750241231.81246,2281
1750241231.813828,1853
1750241231.8139346,1575
1750241231.8140378,1299
1750241231.8141403,993
1750241231.814243,1006
1750241231.8143463,1650
1750241231.8144484,2785
1750241231.8145509,3931
1750241231.8146532,4670
1750241231.8147562,4701
1750241231.8148582,3957
1750241231.8149602,2635
1750241231.8150773,1103
1750241231.8158011,-185
1750241231.8160589,-718
1750241231.824705,-355
1750241231.8248527,480
1750241231.8255424,1196
1750241231.825666,1637
1750241231.82577,1952
1750241231.8258727,2258
1750241231.8285003,2412
1750241231.8286097,2150
1750241231.8295727,1427
1750241231.8298655,756
1750241231.8319643,704
1750241231.832202,1260
1750241231.8327096,1875
1750241231.832818,2181
1750241231.837432,2228
1750241231.8375423,2247
1750241231.837649,2242
1750241231.8377523,1994
1750241231.8378556,1362
1750241231.838672,744
1750241231.8390086,740
1750241231.839449,1450
1750241231.8400037,2279
1750241231.8402905,2664
1750241231.8408415,2548
1750241231.8411198,2238
1750241231.8415332,1954
1750241231.8422384,1639
1750241231.8425176,1159
1750241231.8428745,775
1750241231.843497,998
1750241231.8437796,1893
1750241231.844053,2828
1750241231.8452256,3152
1750241231.845557,2837
1750241231.8458219,2319
1750241231.8460808,1961
1750241231.8512428,1706
1750241231.901185,1308
1750241231.9066648,898
1750241231.9375687,1032
1750241231.937659,1910
1750241231.9377384,2952
1750241231.9378173,3379
1750241231.9378965,3061
1750241231.937975,2466
1750241231.9380538,2079
1750241231.938132,1879
1750241231.93821,1538
1750241231.9382894,1054
1750241231.9383698,1000
1750241231.9384637,1735
1750241231.9385428,2813
1750241231.9564574,3377
1750241231.9627817,3154
1750241231.963027,2547
1750241231.9631355,2111
1750241231.9632506,1906
1750241231.9636421,1619
1750241231.9637513,1145
1750241231.9641223,1006
1750241231.9646297,1654
1750241231.9647055,2771
1750241231.9647768,3472
1750241231.964847,3346
1750241231.9649172,2717
1750241231.9649868,2198
1750241231.965072,1973
1750241231.9651453,1770
1750241231.9674294,1345
1750241231.9675143,1064
1750241231.9675927,1433
1750241231.967668,2365
1750241231.9677422,3117
1750241231.9678166,3187
1750241231.9678907,2704
1750241231.967965,2169
1750241231.9680386,1848
1750241231.9681122,1625
1750241231.9681857,1288
1750241231.9682593,1076
1750241231.9683337,1429
1750241231.9684217,2328
1750241232.0251346,3123
1750241232.0255253,3278
1750241232.026187,2848
1750241232.0272944,2283
1750241232.027401,1909
1750241232.0275037,1682
1750241232.0280418,1378
1750241232.0283246,1122
1750241232.0285995,1345
1750241232.0292246,2142
1750241232.0296166,2974
1750241232.0301495,3257
1750241232.0303898,2934
1750241232.0306492,2387
1750241232.0312963,1977
1750241232.0315728,1720
1750241232.0319464,1407
1750241232.0322168,1106
1750241232.0324755,1261
1750241232.0327296,2039
1750241232.0329838,2952
1750241232.0332348,3337
1750241232.033581,3065
1750241232.0338385,2511
1750241232.0340488,2097
1750241232.0341518,1849
1750241232.034254,1531
1750241232.0343552,1149
1750241232.0344565,1190
1750241232.03457,1939
1750241232.0346725,2961
1750241232.0347743,3479
1750241232.0361865,3253
1750241232.073614,2658
1750241232.0737317,2214
1750241232.0738544,1993
1750241232.088173,1711
1750241232.0882568,1259
1750241232.0883362,1109
1750241232.0884333,1684
1750241232.0885131,2708
1750241232.0885906,3373
1750241232.0886693,3291
1750241232.0887465,2740
1750241232.088824,2261
1750241232.0889022,1978
1750241232.0889802,1658
1750241232.0890653,1199
1750241232.089142,1041
1750241232.0892186,1572
1750241232.089295,2569
1750241232.089371,3277
1750241232.089434,3309
1750241232.0894966,2878
1750241232.0895767,2430
1750241232.0896564,2064
1750241232.0897331,1681
1750241232.0898132,1311
1750241232.0898938,1297
1750241232.0899715,1722
1750241232.0900488,2107
1750241232.0901365,1795
1750241232.0902145,861
1750241232.0902913,77
1750241232.0903687,95
1750241232.0904455,741
1750241232.104384,1373
1750241232.104471,1632
1750241232.10455,1891
1750241232.1046283,2660
1750241232.1047065,3806
1750241232.1047919,4520
1750241232.10487,4221
1750241232.1049466,3138
1750241232.1050239,1996
1750241232.1051128,1294
1750241232.1051893,1034
1750241232.1052663,988
1750241232.1053433,1169
1750241232.1058855,1805
1750241232.1059675,2827
1750241232.1060464,3656
1750241232.1061301,3739
1750241232.1062167,3109
1750241232.1062984,2268
1750241232.1063755,1699
1750241232.1064532,1504
1750241232.1065302,1455
1750241232.1066077,1469
1750241232.1066844,1792
1750241232.1067712,2503
1750241232.1075578,3203
1750241232.1390836,3381
1750241232.177527,2994
1750241232.1807203,2403
1750241232.1808767,1999
1750241232.1809502,1828
1750241232.1811087,1665
1750241232.1811755,1445
1750241232.1812482,1522
1750241232.1813169,2134
1750241232.1813877,2962
1750241232.181447,3380
1750241232.1815221,3187
1750241232.1815937,2683
1750241232.1816654,2305
1750241232.1837893,2131
1750241232.1838696,1919
1750241232.1839428,1529
1750241232.1840138,1340
1750241232.1840863,1747
1750241232.1841588,2582
1750241232.1842308,3186
1750241232.1843026,3194
1750241232.1843743,2773
1750241232.1844451,2362
1750241232.1845174,2132
1750241232.1845891,1924
1750241232.1846607,1553
1750241232.1847332,1302
1750241232.1848047,1577
1750241232.1848752,2337
1750241232.184947,3003
1750241232.1850193,3148
1750241232.1851077,2823
1750241232.1851802,2397
1750241232.1852524,2096
1750241232.1853225,1869
1750241232.1853971,1544
1750241232.1854663,1299
1750241232.185538,1501
1750241232.18561,2177
1750241232.1856816,2838
1750241232.1857502,3049
1750241232.185822,2802
1750241232.185893,2403
1750241232.1859646,2088
1750241232.1860359,1844
1750241232.1861064,1516
1750241232.1861765,1250
1750241232.18625,1437
1750241232.1863213,2157
1750241232.186393,2923
1750241232.1864643,3207
1750241232.1865356,2961
1750241232.1866062,2525
1750241232.1866772,2207
1750241232.1867492,1993
1750241232.1868207,1669
1750241232.1868923,1300
1750241232.1869555,1335
1750241232.1870139,1985
1750241232.18708,2837
1750241232.1871512,3263
1750241232.1872227,3095
1750241232.1896992,2638
1750241232.2008536,2288
1750241232.2013328,2096
1750241232.218133,1832
1750241232.2182145,1433
1750241232.2190473,1297
1750241232.2399898,1742
1750241232.2406847,2530
1750241232.240801,3059
1750241232.2409291,3052
1750241232.2410429,2676
1750241232.241204,2290
1750241232.2413259,2013
1750241232.2414455,1717
1750241232.2415655,1338
1750241232.2416854,1226
1750241232.2418191,1693
1750241232.2419405,2524
1750241232.2420607,3088
1750241232.24218,3071
1750241232.2584414,2659
1750241232.2707736,2273
1750241232.2708504,2054
1750241232.2709227,1827
1750241232.2709846,1428
1750241232.2710478,1180
1750241232.2711189,1510
1750241232.2711895,2344
1750241232.2712615,3037
1750241232.271333,3138
1750241232.2714045,2750
1750241232.2714846,2323
1750241232.2715564,2080
1750241232.2716284,1875
1750241232.2716997,1482
1750241232.2717865,1149
1750241232.2834961,1362
1750241232.3018303,2166
1750241232.3022614,2950
1750241232.311102,3163
1750241232.4635756,2820
1750241232.4654403,2356
1750241232.467962,2074
1750241232.4680889,1894
1750241232.4681659,1553
1750241232.468244,1182
1750241232.4684126,1255
1750241232.468491,1936
1750241232.4686053,2739
1750241232.4686725,3076
1750241232.4691265,2849
1750241232.4998155,2397
1750241232.5007277,2063
1750241232.5008118,1861
1750241232.5008929,1568
1750241232.500973,1210
1750241232.5010548,1191
1750241232.501135,1731
1750241232.5012152,2481
1750241232.5012956,2883
1750241232.5027413,2766
1750241232.5028255,2365
1750241232.5029092,2007
1750241232.5029762,1758
1750241232.5030377,1465
1750241232.5031137,1127
1750241232.503193,1127
1750241232.503271,1700
1750241232.50335,2526
1750241232.503429,2991
1750241232.5035071,2883
1750241232.5035868,2451
1750241232.503666,2081
1750241232.5037446,1848
1750241232.5038228,1568
1750241232.5039093,1174
1750241232.5039754,1061
1750241232.5040448,1568
1750241232.5041227,2459
1750241232.5042002,3062
1750241232.5042782,3045
1750241232.5043592,2613
1750241232.504437,2211
1750241232.504518,1988
1750241232.504596,1759
1750241232.504673,1343
1750241232.5047522,1035
1750241232.5048313,1252
1750241232.5049088,1963
1750241232.505104,2611
1750241232.505186,2784
1750241232.5052667,2512
1750241232.5053463,2124
1750241232.5054166,1817
1750241232.5054781,1547
1750241232.5055566,1195
1750241232.5056353,998
1750241232.5057147,1320
1750241232.5057943,2122
1750241232.5058806,2834
1750241232.5059545,3002
1750241232.5060282,2674
1750241232.5061026,2234
1750241232.5061762,1938
1750241232.5062504,1717
1750241232.5063272,1358
1750241232.506401,1024
1750241232.5064747,1170
1750241232.5065484,1912
1750241232.5066226,2729
1750241232.506696,3040
1750241232.5067697,2781
1750241232.506843,2331
1750241232.531439,2028
1750241232.5968153,1836
1750241232.5986245,1499
1750241232.6084504,1086
1750241232.6095023,1082
1750241232.6099992,1725
1750241232.636786,2582
1750241232.6388931,3005
1750241232.6628556,2827
1750241232.6630132,2372
1750241232.6827068,2033
1750241232.6847446,1841
1750241232.685275,1555
1750241232.6854746,1137
1750241232.6855805,1020
1750241232.6856844,1517
1750241232.685788,2334
1750241232.685891,2835
1750241232.6859937,2767
1750241232.6864161,2354
1750241232.6865237,1989
1750241232.6866276,1773
1750241232.6867368,1525
1750241232.6868484,1148
1750241232.6870213,999
1750241232.687125,1417
1750241232.6872287,2214
1750241232.6873314,2778
1750241232.687435,2786
1750241232.6875381,2393
1750241232.687641,1998
1750241232.687744,1760
1750241232.687848,1543
1750241232.6879506,1194
1750241232.6880524,1001
1750241232.6881552,1339
1750241232.6887023,2122
1750241232.6888106,2755
1750241232.688892,2841
1750241232.688971,2481
1750241232.6890504,2081
1750241232.6891425,1836
1750241232.6892214,1619
1750241232.6893003,1239
1750241232.6893733,956
1750241232.6894324,1228
1750241232.6895106,2063
1750241232.6895852,2838
1750241232.6896584,3021
1750241232.6897326,2653
1750241232.689806,2189
1750241232.7323442,1928
1750241232.7324529,1763
1750241232.732552,1414
1750241232.732648,1023
1750241232.732746,1089
1750241232.7328424,1783
1750241232.7329204,2596
1750241232.7329895,2924
1750241232.7330582,2679
1750241232.7331269,2230
1750241232.7331965,1919
1750241232.7332666,1729
1750241232.73333,1414
1750241232.7333944,1031
1750241232.7334645,1038
1750241232.7335348,1660
1750241232.7336059,2484
1750241232.7336762,2889
1750241232.7337472,2718
1750241232.7338183,2273
1750241232.7338867,1929
1750241232.7339668,1733
1750241232.7340362,1465
1750241232.7341132,1089
1750241232.734185,1009
1750241232.7342536,1512
1750241232.7343225,2309
1750241232.734391,2786
1750241232.7344604,2708
1750241232.7345312,2298
1750241232.7346003,1938
1750241232.7346683,1717
1750241232.7347374,1456
1750241232.7348063,1080
1750241232.734875,969
1750241232.734947,1460
1750241232.7350094,2326
1750241232.7350771,2907
1750241232.7351387,2879
1750241232.7351997,2444
1750241232.7352607,2044
1750241232.7353215,1831
1750241232.7353828,1623
1750241232.7354445,1239
1750241232.7355056,984
1750241232.7355697,1273
1750241232.735637,2046
1750241232.735705,2699
1750241232.7357726,2815
1750241232.73584,2478
1750241232.7359226,2080
1750241232.7359905,1827
1750241232.7360585,1611
1750241232.736127,1242
1750241232.7361956,955
1750241232.7362633,1175
1750241232.736332,1921
1750241232.7364,2632
1750241232.7364676,2822
1750241232.7365358,2512
1750241232.7366045,2083
1750241232.7366714,1801
1750241232.7367394,1600
1750241232.7368069,1264
1750241232.7371068,951
1750241232.7860794,1113
1750241232.7862003,1859
1750241232.7863076,2660
1750241232.8079765,2942
1750241232.8134513,2659
1750241232.8240504,2200
1750241232.8245401,1903
1750241232.8755302,1726
1750241232.8757741,1406
1750241232.9055982,1005
1750241232.9057329,1003
1750241232.9062636,1640
1750241232.906458,2489
1750241232.9065409,2909
1750241232.9066155,2731
1750241232.906709,2274
1750241232.9069722,1932
1750241232.9070363,1746
1750241232.9198215,1480
1750241232.9199176,1083
1750241232.919995,965
1750241232.9200664,1435
1750241232.9201403,2226
1750241232.9202335,2729
1750241232.920309,2685
1750241232.92038,2286
1750241232.92045,1904
1750241232.9205208,1661
1750241232.9205902,1411
1750241232.9206822,1065
1750241232.9207544,953
1750241232.9208295,1385
1750241232.9209044,2174
1750241232.9209733,2729
1750241232.9210455,2741
1750241232.9217305,2359
1750241232.9243352,1965
1750241232.9527712,1713
1750241233.0357559,1475
1750241233.094398,1118
1750241233.094506,944
1750241233.0945737,1325
1750241233.0946407,2153
1750241233.0947075,2807
1750241233.0947738,2884
1750241233.0948405,2503
1750241233.1018536,2090
1750241233.1019335,1844
1750241233.102003,1628
1750241233.1020732,1239
1750241233.1021438,936
1750241233.1022115,1178
1750241233.1022804,1984
1750241233.1023524,2748
1750241233.1024227,2954
1750241233.1024902,2625
1750241233.1025593,2178
1750241233.1026266,1895
1750241233.1027,1697
1750241233.102778,1345
1750241233.1028526,981
1750241233.1029248,1061
1750241233.1029847,1718
1750241233.1030512,2473
1750241233.1031258,2780
1750241233.1032002,2565
1750241233.1032739,2152
1750241233.1033478,1842
1750241233.1034224,1627
1750241233.103497,1306
1750241233.1035776,959
1750241233.103651,1020
1750241233.1037257,1669
1750241233.1037993,2477
1750241233.103873,2842
1750241233.103947,2643
1750241233.10402,2198
1750241233.1040945,1869
1750241233.1041682,1670
1750241233.1042428,1378
1750241233.1043167,995
1750241233.1043909,971
1750241233.1044645,1589
1750241233.1045382,2488
1750241233.104612,2987
1750241233.1046863,2849
1750241233.1047614,2369
1750241233.1048353,1997
1750241233.1055138,1820
1750241233.1354232,1593
1750241233.1488469,1174
1750241233.1489577,936
1750241233.1490784,1271
1750241233.1491845,2036
1750241233.149303,2624
1750241233.1494067,2685
1750241233.1497176,2330
1750241233.1498933,1935
1750241233.1499999,1675
1750241233.1501038,1447
1750241233.1502264,1113
1750241233.1503308,939
1750241233.1506796,1267
1750241233.150801,2017
1750241233.1573212,2631
1750241233.157439,2735
1750241233.1575458,2401
1750241233.1576512,1988
1750241233.1577687,1703
1750241233.1579208,1470
1750241233.1587522,1129
1750241233.158863,906
1750241233.1589699,1201
1750241233.1590898,2007
1750241233.1591966,2741
1750241233.1593049,2915
1750241233.1594117,2567
1750241233.1595275,2119
1750241233.1596556,1854
1750241233.1598241,1680
1750241233.1599529,1334
1750241233.1600592,968
1750241233.1601648,1079
1750241233.160271,1819
1750241233.1603901,2650
1750241233.1604948,2950
1750241233.1605997,2643
1750241233.160704,2143
1750241233.1607747,1833
1750241233.1608443,1674
1750241233.1609137,1352
1750241233.160983,901
1750241233.1610532,849
1750241233.172095,1494
1750241233.2072911,2392
1750241233.208161,2831
1750241233.2579105,2623
1750241233.2611558,2134
1750241233.2612865,1832
1750241233.2613988,1733
1750241233.261497,1497
1750241233.2615962,1033
1750241233.2622585,928
1750241233.2624443,1699
1750241233.2630923,2902
1750241233.2632098,3503
1750241233.2633255,3073
1750241233.26344,2170
1750241233.2636034,1691
1750241233.2728856,1804
1750241233.2795463,1798
1750241233.280132,1137
1750241233.2802386,592
1750241233.280312,1477
1750241233.2803848,3889
1750241233.280486,6316
1750241233.2806308,7226
1750241233.280721,6515
1750241233.2808301,5385
1750241233.280957,4817
1750241233.2810593,4515
1750241233.2812154,3553
1750241233.281285,2033
1750241233.2813735,1172
1750241233.2817159,1737
1750241233.2864945,3037
1750241233.2865827,3847
1750241233.286662,3702
1750241233.2867405,3174
1750241233.286819,2947
1750241233.286897,2938
1750241233.2869742,2513
1750241233.287052,1655
1750241233.2871296,1180
1750241233.287207,1670
1750241233.287284,2648
1750241233.2873616,3247
1750241233.287439,3115
1750241233.2875168,2612
1750241233.2875943,2236
1750241233.2973335,2013
1750241233.3097894,1631
1750241233.309917,1097
1750241233.3100595,958
1750241233.3104131,1566
1750241233.31055,2505
1750241233.3106675,3041
1750241233.3107839,2898
1750241233.3110168,2360
1750241233.3111415,1877
1750241233.3112564,1566
1750241233.3177931,1244
1750241233.3295102,879
1750241233.3601224,868
1750241233.3602087,1480
1750241233.360287,2374
1750241233.3603642,2890
1750241233.3604407,2771
1750241233.3605173,2252
1750241233.360594,1750
1750241233.3606691,1409
1750241233.3607454,1111
1750241233.3608217,797
1750241233.3608983,811
1750241233.360974,1419
1750241233.3610504,2336
1750241233.3611376,2897
1750241233.3612149,2808
1750241233.3612921,2286
1750241233.3613648,1769
1750241233.3614256,1426
1750241233.3615088,1138
1750241233.3615854,790
1750241233.3616624,686
1750241233.3617556,1169
1750241233.3618343,2076
1750241233.3619118,2744
1750241233.3619902,2774
1750241233.3620684,2302
1750241233.3621464,1767
1750241233.3622236,1409
1750241233.3623013,1155
1750241233.3672926,843
1750241233.3673801,689
1750241233.3674626,1057
1750241233.3675442,1900
1750241233.3676255,2619
1750241233.3677056,2752
1750241233.3677866,2351
1750241233.3678675,1814
1750241233.3679488,1427
1750241233.3680284,1168
1750241233.3681073,865
1750241233.368186,666
1750241233.3682647,956
1750241233.3683436,1767
1750241233.3684423,2549
1750241233.3685217,2768
1750241233.3686008,2417
1750241233.3686793,1884
1750241233.3687572,1495
1750241233.368836,1233
1750241233.368915,904
1750241233.3689933,624
1750241233.3690743,842
1750241233.3691525,1683
1750241233.3692307,2597
1750241233.3693097,2909
1750241233.3693893,2539
1750241233.3694587,1925
1750241233.3695369,1520
1750241233.3696144,1328
1750241233.369692,1064
1750241233.3697703,707
1750241233.3698478,728
1750241233.369926,1415
1750241233.3700035,2369
1750241233.3700812,2850
1750241233.370159,2625
1750241233.3702364,2032
1750241233.3703141,1559
1750241233.370392,1302
1750241233.3704698,1047
1750241233.3705478,716
1750241233.3706262,721
1750241233.370705,1377
1750241233.3707812,2360
1750241233.3708591,2925
1750241233.3709311,2775
1750241233.3709984,2200
1750241233.3710763,1702
1750241233.3711534,1422
1750241233.371235,1165
1750241233.3713143,789
1750241233.3713934,650
1750241233.3714724,1135
1750241233.3715522,2064
1750241233.3716316,2727
1750241233.371711,2725
1750241233.3718095,2239
1750241233.371889,1736
1750241233.371968,1419
1750241233.3720462,1164
1750241233.3721266,821
1750241233.372205,678
1750241233.3722835,1128
1750241233.3723612,2057
1750241233.3724391,2774
1750241233.372517,2816
1750241233.3725948,2335
1750241233.372673,1809
1750241233.3727508,1490
1750241233.3728294,1262
1750241233.372908,914
1750241233.3729882,665
1750241233.4215367,969
1750241233.443627,1844
1750241233.4753416,2662
1750241233.533943,2852
1750241233.6178544,2456
1750241233.7159767,1919
1750241233.7435198,1564
1750241233.768201,1335
1750241233.8064332,1014
1750241233.8494334,725
1750241233.903686,923
1750241233.924431,1722
1750241233.9499326,2586
1750241234.001129,2886
1750241234.0012493,2564
1750241234.0015748,2014
1750241234.0020173,1623
1750241234.0021293,1395
1750241234.0022035,1089
1750241234.0022848,753
1750241234.0023649,855
1750241234.0024478,1616
1750241234.0025277,2585
1750241234.002608,3020
1750241234.0026877,2731
1750241234.0027678,2140
1750241234.0028467,1763
1750241234.002926,1583
1750241234.0030057,1270
1750241234.003085,812
1750241234.003164,809
1750241234.0032437,1612
1750241234.0033226,2654
1750241234.003402,2844
1750241234.0753639,1891
1750241234.1184146,642
1750241234.1211982,247
1750241234.2265027,875
1750241234.3151906,1691
1750241234.3338392,1888
1750241234.3339477,1711
1750241234.334048,1922
1750241234.334156,2750
1750241234.334256,3490
1750241234.3343532,3453
1750241234.33594,2658
1750241234.3360276,1753
1750241234.336101,1207
1750241234.336174,1037
1750241234.336246,1034
1750241234.336318,1295
1750241234.3364072,1971
1750241234.3364792,2868
1750241234.3365512,3382
1750241234.3366232,3179
1750241234.3366947,2500
1750241234.3367672,1863
1750241234.3368394,1527
1750241234.3369114,1426
1750241234.3369832,1371
1750241234.3370554,1472
1750241234.337127,1937
1750241234.3371985,2655
1750241234.33727,3114
1750241234.337342,3004
1750241234.337413,2490
1750241234.3374856,1996
1750241234.337557,1753
1750241234.3376284,1680
1750241234.3377,1550
1750241234.3377714,1450
1750241234.337843,1694
1750241234.3379142,2323
1750241234.3379855,2894
1750241234.338057,2992
1750241234.3381279,2654
1750241234.3381977,2223
1750241234.3382678,1959
1750241234.3383405,1825
1750241234.3384178,1612
1750241234.3384879,1372
1750241234.3385577,1466
1750241234.338628,2041
1750241234.338698,2716
1750241234.3387687,2998
1750241234.3388383,2804
1750241234.3389049,2403
1750241234.3418212,2084
1750241234.3433626,1871
1750241234.343714,1602
1750241234.3438475,1296
1750241234.3443274,1324
1750241234.3450468,1884
1750241234.378487,2648
1750241234.3786263,3053
1750241234.3787575,2933
1750241234.380084,2521
1750241234.3802283,2160
1750241234.3803377,1921
1750241234.3804593,1655
1750241234.38057,1313
1750241234.3806784,1241
1750241234.3807862,1708
1750241234.3809419,2487
1750241234.3810477,2997
1750241234.3811502,2979
1750241234.3812528,2598
1750241234.3814452,2207
1750241234.3815525,1930
1750241234.3816643,1661
1750241234.381788,1313
1750241234.3818955,1186
1750241234.3820019,1584
1750241234.3821084,2363
1750241234.382216,2947
1750241234.382322,3009
1750241234.3824291,2660
1750241234.3825355,2255
1750241234.38385,1958
1750241234.3843234,1696
1750241234.384403,1345
1750241234.3844786,1148
1750241234.3845527,1450
1750241234.3846269,2203
1750241234.3847013,2861
1750241234.3847759,3019
1750241234.3848495,2723
1750241234.3851986,2306
1750241234.4293678,1986
1750241234.4312558,1727
1750241234.4313343,1386
1750241234.4314094,1132
1750241234.4314845,1332
1750241234.43156,2029
1750241234.4316344,2739
1750241234.4317086,2992
1750241234.431794,2763
1750241234.4777868,2352
1750241234.544137,2017
1750241234.6054015,1760
1750241234.6055076,1437
1750241234.638832,1151
1750241234.6408772,1282
1750241234.6564996,1940
1750241234.6568434,2697
1750241234.657177,3025
1750241234.6574974,2840
1750241234.6578286,2421
1750241234.6581588,2068
1750241234.6585133,1814
1750241234.6588361,1501
1750241234.659169,1163
1750241234.6595068,1179
1750241234.6598392,1746
1750241234.6721988,2524
1750241234.6725683,2948
1750241234.6729147,2847
1750241234.673249,2448
1750241234.7181919,2081
1750241234.7183263,1819
1750241234.7184548,1527
1750241234.7261221,1178
1750241234.726245,1121
1750241234.72635,1612
1750241234.7265072,2407
1750241234.726613,2920
1750241234.726717,2899
1750241234.726821,2512
1750241234.7269855,2115
1750241234.7270896,1836
1750241234.7271948,1569
1750241234.7273023,1222
1750241234.7274055,1086
1750241234.727509,1467
1750241234.727612,2231
1750241234.7277231,2814
1750241234.7278266,2886
1750241234.7279322,2547
1750241234.7280347,2141
1750241234.7281377,1837
1750241234.7282407,1572
1750241234.7283447,1231
1750241234.728493,1059
1750241234.7285964,1396
1750241234.7286992,2176
1750241234.728802,2838
1750241234.7289042,2979
1750241234.7290065,2660
1750241234.7291088,2238
1750241234.7292166,1926
1750241234.7293203,1671
1750241234.7296245,1314
1750241234.7298696,1043
1750241234.7301235,1246
1750241234.7303739,1969
1750241234.7306297,2701
1750241234.7309856,2956
1750241234.7315378,2708
1750241234.7863154,2280
1750241234.7959554,1942
1750241234.7960277,1691
1750241234.7960944,1363
1750241234.7961602,1064
1750241234.7962255,1184
1750241234.796291,1844
1750241234.7963557,2609
1750241234.79642,2948
1750241234.8066673,2767
1750241234.8556542,2345
1750241234.8586664,1985
1750241234.8588395,1721
1750241234.858914,1402
1750241234.8590753,1072
1750241234.8591483,1118
1750241234.859223,1725
1750241234.8907568,2532
1750241234.8927665,2960
1750241234.8928525,2843
1750241234.892913,2426
1750241234.892973,2051
1750241234.8930414,1787
1750241234.893114,1488
1750241234.8931863,1125
1750241234.893259,1060
1750241234.9253414,1554
1750241235.0153139,2352
1750241235.053491,2863
1750241235.0536036,2838
1750241235.0537117,2454
1750241235.053889,2061
1750241235.0867167,1775
1750241235.1471205,1491
1750241235.1504798,1134
1750241235.163612,1018
1750241235.1743057,1441
1750241235.1773002,2235
1750241235.2054255,2816
1750241235.265689,2869
1750241235.2696133,2517
1750241235.2696955,2114
1750241235.269818,1814
1750241235.269936,1544
1750241235.2700539,1191
1750241235.2701714,1008
1750241235.2703059,1333
1750241235.2704234,2094
1750241235.2705417,2742
1750241235.2706594,2888
1750241235.2742827,2587
1750241235.275198,2170
1750241235.2752826,1841
1750241235.275362,1571
1750241235.2754405,1226
1750241235.2755353,987
1750241235.275623,1206
1750241235.2757692,1903
1750241235.2758574,2595
1750241235.2762678,2840
1750241235.2772536,2618
1750241235.277334,2214
1750241235.2773974,1866
1750241235.277472,1590
1750241235.27755,1266
1750241235.2776299,1003
1750241235.277711,1146
1750241235.2777917,1783
1750241235.2931175,2502
1750241235.2932034,2822
1750241235.29328,2660
1750241235.293349,2252
1750241235.2934146,1874
1750241235.3000073,1591
1750241235.3259215,1295
1750241235.3261511,1018
1750241235.3263535,1074
1750241235.3271394,1614
1750241235.3275812,2332
1750241235.3277268,2740
1750241235.3278651,2680
1750241235.3280017,2308
1750241235.3281372,1903
1750241235.328277,1578
1750241235.3284364,1286
1750241235.328573,1014
1750241235.3339462,1026
1750241235.334023,1490
1750241235.334095,2183
1750241235.3341632,2639
1750241235.3342319,2662
1750241235.3342998,2353
1750241235.3343759,1964
1750241235.3344493,1619
1750241235.33452,1310
1750241235.334587,1015
1750241235.334654,974
1750241235.3347208,1381
1750241235.334788,2075
1750241235.334849,2588
1750241235.3349104,2674
1750241235.3349764,2397
1750241235.3355052,2008
1750241235.33564,1653
1750241235.3422112,1353
1750241235.3422897,1060
1750241235.3423607,967
1750241235.3424323,1293
1750241235.342503,1949
1750241235.3425741,2496
1750241235.342644,2648
1750241235.3427148,2431
1750241235.3427858,2070
1750241235.3428583,1719
1750241235.3429244,1409
1750241235.3429835,1088
1750241235.3430717,924
1750241235.343142,1177
1750241235.343213,1827
1750241235.3432832,2446
1750241235.3433537,2674
1750241235.3434243,2490
1750241235.3434951,2114
1750241235.343566,1746
1750241235.3436365,1444
1750241235.343707,1141
1750241235.3437767,938
1750241235.3438468,1109
1750241235.343917,1705
1750241235.3439872,2358
1750241235.3440573,2666
1750241235.3441274,2552
1750241235.3441973,2197
1750241235.3442674,1823
1750241235.3443375,1506
1750241235.3444073,1189
1750241235.344478,930
1750241235.344549,1016
1750241235.344619,1557
1750241235.3446896,2245
1750241235.3447597,2633
1750241235.3448293,2589
1750241235.3448994,2261
1750241235.3449695,1894
1750241235.3450484,1574
1750241235.3451402,1249
1750241235.3452106,928
1750241235.3452802,902
1750241235.3453436,1353
1750241235.345405,2053
1750241235.345475,2523
1750241235.3455453,2560
1750241235.345615,2263
1750241235.3456843,1893
1750241235.3462896,1574
1750241235.3463948,1279
1750241235.3464968,972
1750241235.3465984,902
1750241235.3466997,1281
1750241235.346801,1964
1750241235.347011,2482
1750241235.3471158,2582
1750241235.3472185,2320
1750241235.3473208,1950
1750241235.3474233,1619
1750241235.3475251,1330
1750241235.347627,1023
1750241235.3477287,906
1750241235.3478327,1221
1750241235.3484616,1894
1750241235.3486407,2469
1750241235.3487468,2640
1750241235.34885,2418
1750241235.3489683,2042
1750241235.3490703,1682
1750241235.3491735,1370
1750241235.349276,1041
1750241235.3494895,866
1750241235.3495927,1117
1750241235.349695,1780
1750241235.349797,2421
1750241235.3498993,2668
1750241235.3500016,2492
1750241235.350104,2114
1750241235.3502064,1741
1750241235.3503087,1426
1750241235.3504114,1100
1750241235.350514,877
1750241235.3506162,1048
1750241235.3507187,1667
1750241235.3508205,2350
1750241235.3510213,2677
1750241235.351124,2563
1750241235.351227,2200
1750241235.3513293,1817
1750241235.3514318,1494
1750241235.351534,1167
1750241235.3516357,899
1750241235.3517468,987
1750241235.4101684,1547
1750241235.4103305,2261
1750241235.4104369,2669
1750241235.410541,2625
1750241235.4106467,2277
1750241235.4128776,1878
1750241235.4130166,1538
1750241235.413871,1219
1750241235.4141555,932
1750241235.4144394,953
1750241235.4147003,1442
1750241235.4149585,2160
1750241235.4152162,2634
1750241235.415478,2664
1750241235.4157631,2350
1750241235.416064,1950
1750241235.4163322,1598
1750241235.4166,1280
1750241235.416866,975
1750241235.4170687,930
1750241235.4318926,1346
1750241235.4364896,2058
1750241235.4366019,2594
1750241235.4367068,2701
1750241235.4368105,2430
1750241235.4369144,2032
1750241235.437018,1660
1750241235.437122,1334
1750241235.437226,1013
1750241235.43733,911
1750241235.4374576,1259
1750241235.437564,1962
1750241235.4376683,2555
1750241235.4377728,2731
1750241235.4386673,2500
1750241235.43878,2103
1750241235.4388845,1717
1750241235.4389877,1387
1750241235.4390912,1060
1750241235.439195,902
1750241235.4392974,1172
1750241235.4394104,1845
1750241235.4395149,2490
1750241235.4396183,2744
1750241235.4397216,2573
1750241235.4398243,2187
1750241235.4399338,1787
1750241235.4400887,1446
1750241235.4403465,1110
1750241235.4406223,900
1750241235.4408798,1090
1750241235.4411306,1717
1750241235.4413905,2399
1750241235.4416614,2730
1750241235.4453833,2626
1750241235.4454563,2262
1750241235.4455302,1860
1750241235.4458618,1512
1750241235.4907675,1176
1750241235.5046728,922
1750241235.505485,1031
1750241235.5274072,1599
1750241235.5277815,2306
1750241235.5281808,2711
1750241235.5285897,2676
1750241235.534838,2336
1750241235.5354886,1929
1750241235.5355604,1569
1750241235.5356407,1237
1750241235.535739,959
1750241235.535817,1004
1750241235.535911,1510
1750241235.5360017,2227
1750241235.536089,2692
1750241235.5361829,2718
1750241235.5362725,2401
1750241235.5363626,1990
1750241235.5364525,1619
1750241235.5365427,1288
1750241235.536633,985
1750241235.5367227,957
1750241235.5368128,1393
1750241235.5368946,2117
1750241235.5369833,2658
1750241235.537064,2766
1750241235.5371537,2491
1750241235.5372443,2082
1750241235.5373333,1698
1750241235.537396,1364
1750241235.5374577,1040
1750241235.5375195,938
1750241235.5375817,1284
1750241235.537643,1984
1750241235.5377057,2577
1750241235.5377674,2758
1750241235.537829,2531
1750241235.5379002,2131
1750241235.537969,1740
1750241235.5380402,1410
1750241235.5381117,1085
1750241235.5381827,932
1750241235.5382533,1205
1750241235.538325,1880
1750241235.538402,2524
1750241235.5384727,2778
1750241235.5385423,2600
1750241235.5386138,2204
1750241235.5386848,1797
1750241235.5543592,1459
1750241235.5711555,1131
1750241235.578452,930
1750241235.57859,1125
1750241235.5786662,1758
1750241235.57874,2448
1750241235.578815,2788
1750241235.578886,2681
1750241235.5789495,2297
1750241235.579023,1867
1750241235.579097,1501
1750241235.579169,1165
1750241235.5792422,928
1750241235.579316,1057
1750241235.57939,1638
1750241235.5794635,2349
1750241235.5795372,2752
1750241235.5796106,2715
1750241235.5796838,2372
1750241235.5797575,1962
1750241235.579832,1602
1750241235.5799053,1266
1750241235.5799782,980
1750241235.5800517,1014
1750241235.5801246,1514
1750241235.580198,2233
1750241235.5802712,2706
1750241235.580345,2740
1750241235.580418,2428
1750241235.5804894,2020
1750241235.5805626,1654
1750241235.5806363,1324
1750241235.5807092,1020
1750241235.5807824,992
1750241235.5808556,1429
1750241235.5809317,2152
1750241235.5810049,2683
1750241235.581078,2774
1750241235.5811515,2488
1750241235.581225,2083
1750241235.5812895,1713
1750241235.5813503,1391
1750241235.5814116,1074
1750241235.5814903,982
1750241235.58157,1349
1750241235.581649,2068
1750241235.59173,2659
1750241235.5948448,2817
1750241235.633329,2565
1750241235.6720464,2158
1750241235.6722004,1776
1750241235.6722856,1454
1750241235.6723676,1129
1750241235.6724498,972
1750241235.6744418,1246
1750241235.6745331,1922
1750241235.6746173,2560
1750241235.6747003,2801
1750241235.675621,2614
1750241235.6756995,2220
1750241235.6757748,1826
1750241235.6758494,1505
1750241235.675925,1192
1750241235.6759996,998
1750241235.676075,1182
1750241235.67615,1783
1750241235.6762245,2432
1750241235.6762996,2747
1750241235.6763747,2646
1750241235.6764498,2285
1750241235.676524,1875
1750241235.6765988,1520
1750241235.676673,1197
1750241235.676748,983
1750241235.6768236,1135
1750241235.6768966,1716
1750241235.6769717,2396
1750241235.677046,2758
1750241235.6771202,2691
1750241235.6771939,2340
1750241235.677277,1935
1750241235.6790662,1582
1750241235.7327237,1257
1750241235.7328143,992
1750241235.7328877,1057
1750241235.7329597,1585
1750241235.733032,2306
1750241235.733103,2759
1750241235.7331743,2767
1750241235.7332458,2442
1750241235.7333167,2037
1750241235.733387,1677
1750241235.7335575,1346
1750241235.733818,1036
1750241235.733906,1011
1750241235.7340324,1462
1750241235.7341008,2196
1750241235.7341702,2727
1750241235.734243,2810
1750241235.7343225,2515
1750241235.734389,2103
1750241235.7344556,1729
1750241235.7346447,1405
1750241235.7347128,1090
1750241235.7347784,1008
1750241235.7348387,1383
1750241235.7375293,2103
1750241235.738243,2695
1750241235.7387516,2861
1750241235.7391481,2616
1750241235.7394893,2203
1750241235.7398279,1797
1750241235.7400951,1447
1750241235.7405307,1109
1750241235.7411785,972
1750241235.7422261,1286
1750241235.7430532,1997
1750241235.743163,2647
1750241235.7432675,2880
1750241235.7433715,2679
1750241235.7434754,2276
1750241235.7435787,1872
1750241235.7436812,1532
1750241235.743784,1193
1750241235.743887,988
1750241235.74399,1200
1750241235.7440934,1858
1750241235.7442038,2555
1750241235.7443068,2880
1750241235.7444096,2754
1750241235.7445126,2369
1750241235.7446165,1957
1750241235.744719,1607
1750241235.7448215,1267
1750241235.7449248,1016
1750241235.7450275,1141
1750241235.7451403,1734
1750241235.7452435,2453
1750241235.7453477,2846
1750241235.745483,2778
1750241235.7455866,2407
1750241235.800401,1988
1750241235.8065946,1639
1750241235.807258,1319
1750241235.8078434,1049
1750241235.8084207,1105
1750241235.827254,1632
1750241235.8288717,2363
1750241235.8290205,2821
1750241235.8291645,2819
1750241235.858946,2470
1750241235.8590367,2043
1750241235.8591168,1676
1750241235.859196,1353
1750241235.8592744,1059
1750241235.859353,1054
1750241235.8594303,1531
1750241235.8595088,2289
1750241235.8595862,2826
1750241235.8596637,2887
1750241235.8597412,2542
1750241235.8598185,2074
1750241235.8598955,1661
1750241235.8599732,1327
1750241235.8600502,1029
1750241235.8601317,974
1750241235.8602083,1376
1750241235.8602858,2110
1750241235.8603623,2706
1750241235.8604386,2870
1750241235.860515,2626
1750241235.8605914,2214
1750241235.860668,1806
1750241235.860744,1451
1750241235.8608208,1105
1750241235.860897,953
1750241235.8609736,1246
1750241235.8610508,1938
1750241235.8611271,2581
1750241235.8612037,2828
1750241235.8612802,2646
1750241235.8613565,2247
1750241235.8614335,1830
1750241235.8615098,1480
1750241235.861586,1158
1750241235.8616626,986
1750241235.8617632,1213
1750241235.8618417,1850
1750241235.8619182,2507
1750241235.8619943,2808
1750241235.8620791,2680
1750241235.8621557,2297
1750241235.8622322,1873
1750241235.8623078,1520
1750241235.8787751,1208
1750241235.8796132,1005
1750241235.8798766,1151
1750241235.8867664,1710
1750241235.8871427,2364
1750241235.8872225,2721
1750241235.8872914,2664
1750241235.907391,2314
1750241235.923599,1886
1750241235.9625537,1511
1750241235.9626658,1196
1750241235.9627876,975
1750241235.9628956,1083
1750241235.963003,1599
1750241235.9631097,2240
1750241235.9637227,2600
1750241235.9638305,2580
1750241235.9639335,2275
1750241235.9752793,1847
1750241235.975418,1414
1750241235.990811,1053
1750241235.9909058,843
1750241235.99101,996
1750241235.9910886,1537
1750241235.9911613,2184
1750241235.9912336,2605
1750241235.9913058,2760
1750241235.9913778,2610
1750241235.9914472,1977
1750241235.991555,712
1750241235.9916272,-964
1750241235.9916985,-2483
1750241235.9917839,-3140
1750241235.9918594,-2706
1750241235.9919307,-1619
1750241235.9920015,-544
1750241235.9920723,284
1750241235.9921432,900
1750241235.9922142,1282
1750241235.992286,1284
1750241235.9923577,873
1750241235.9924295,201
1750241235.9925025,-330
1750241235.9925747,-404
1750241235.9926472,-78
1750241235.99272,335
1750241235.992981,712
1750241235.9930527,1069
1750241235.9931247,1339
1750241235.993197,1358
1750241235.9932694,1061
1750241235.9933414,530
1750241235.9934134,91
1750241235.9934855,107
1750241235.9935572,605
1750241235.99363,1237
1750241235.9937024,1687
1750241235.9937754,1887
1750241235.9938505,1854
1750241235.9939232,1603
1750241235.9939947,1179
1750241235.9940667,679
1750241235.994139,338
1750241235.9943566,483
1750241235.9944453,1133
1750241235.9966187,1906
1750241236.0438917,2372
1750241236.0467677,2434
1750241236.047216,2195
1750241236.047548,1816
1750241236.0478892,1394
1750241236.0482295,979
1750241236.0485923,683
1750241236.0583527,788
1750241236.078005,1378
1750241236.083799,2149
1750241236.1060145,2640
1750241236.1061254,2699
1750241236.1062303,2415
1750241236.1063344,1989
1750241236.1064394,1545
1750241236.1065435,1147
1750241236.1066473,856
1750241236.1067507,933
1750241236.1069813,1504
1750241236.107094,2320
1750241236.107201,2883
1750241236.1073112,2978
1750241236.1082838,2679
1750241236.1085851,2225
1750241236.1088545,1771
1750241236.109117,1386
1750241236.1094923,1078
1750241236.116535,1064
1750241236.1385672,1524
1750241236.148426,2308
1750241236.2185585,2936
1750241236.219524,3122
1750241236.2196016,2882
1750241236.219675,2434
1750241236.2197478,1961
1750241236.21982,1562
1750241236.2198925,1240
1750241236.219968,1171
1750241236.2200394,1563
1750241236.2201111,2327
1750241236.2201824,3007
1750241236.2202544,3258
1750241236.2203267,3060
1750241236.2203984,2619
1750241236.2204714,2138
1750241236.220542,1726
1750241236.2206128,1380
1750241236.2206833,1240
1750241236.2207532,1554
1750241236.2208235,2300
1750241236.2208931,3043
1750241236.2209644,3371
1750241236.221035,3219
1750241236.2211058,2786
1750241236.2211757,2310
1750241236.2212455,1899
1750241236.2213163,1538
1750241236.221387,1318
1750241236.2214556,1524
1750241236.2215257,2216
1750241236.221596,3015
1750241236.2216666,3439
1750241236.2254076,3356
1750241236.2264643,2932
1750241236.2265415,2444
1750241236.2266145,2027
1750241236.2266874,1673
1750241236.2267592,1413
1750241236.226831,1522
1750241236.226897,2124
1750241236.2269688,2925
1750241236.2270405,3423
1750241236.2271128,3424
1750241236.2271838,3043
1750241236.227255,2557
1750241236.2273266,2120
1750241236.227398,1750
1750241236.2274969,1451
1750241236.2275693,1490
1750241236.2340963,2043
1750241236.2413821,2878
1750241236.2713418,3456
1750241236.27169,3516
1750241236.2720447,3148
1750241236.2723722,2655
1750241236.2726984,2213
1750241236.2730243,1844
1750241236.2733505,1513
1750241236.2736747,1458
1750241236.2739997,1921
1750241236.2743263,2756
1750241236.274652,3419
1750241236.2749681,3570
1750241236.2766416,3250
1750241236.2769752,2758
1750241236.277305,2307
1750241236.2776275,1942
1750241236.2779546,1601
1750241236.2782815,1464
1750241236.2786307,1802
1750241236.2789464,2566
1750241236.2792718,3267
1750241236.279598,3516
1750241236.2799244,3287
1750241236.2802517,2822
1750241236.280577,2349
1750241236.2809026,1957
1750241236.3414469,1609
1750241236.3415587,1443
1750241236.3944523,1732
1750241236.4239264,2474
1750241236.424001,3220
1750241236.4240909,3538
1750241236.4268203,3362
1750241236.4271562,2906
1750241236.427233,2423
1750241236.427304,2021
1750241236.4273794,1667
1750241236.430474,1442
1750241236.430589,1633
1750241236.4306684,2306
1750241236.4307463,3082
1750241236.431211,3486
1750241236.4327495,3389
1750241236.4332795,2961
1750241236.4334767,2474
1750241236.4337935,2060
1750241236.4408336,1702
1750241236.443489,1439
1750241236.4436257,1549
1750241236.443697,2155
1750241236.4437633,2949
1750241236.4440768,3429
1750241236.445482,3411
1750241236.445554,3024
1750241236.4456215,2544
1750241236.4456873,2115
1750241236.445754,1743
1750241236.445821,1440
1750241236.4458861,1477
1750241236.4459546,2028
1750241236.446021,2851
1750241236.4460924,3413
1750241236.4461582,3465
1750241236.4462245,3105
1750241236.4462893,2625
1750241236.4463549,2193
1750241236.4464211,1826
1750241236.4464865,1492
1750241236.4465528,1436
1750241236.4466188,1889
1750241236.446687,2701
1750241236.446753,3341
1750241236.4468153,3485
1750241236.4468758,3176
1750241236.446942,2696
1750241236.4470086,2246
1750241236.4470782,1870
1750241236.4471438,1522
1750241236.4472091,1397
1750241236.447275,1765
1750241236.4473407,2555
1750241236.447407,3259
1750241236.447473,3488
1750241236.447539,3232
1750241236.4476047,2757
1750241236.4476728,2294
1750241236.4477384,1916
1750241236.447804,1565
1750241236.4478688,1386
1750241236.4479349,1671
1750241236.4480023,2425
1750241236.4480793,3188
1750241236.4481454,3508
1750241236.4482117,3318
1750241236.4482777,2847
1750241236.4483442,2361
1750241236.448422,1961
1750241236.4484882,1600
1750241236.4485543,1362
1750241236.4486203,1547
1750241236.4486861,2229
1750241236.4487536,3022
1750241236.4488196,3439
1750241236.4488876,3344
1750241236.448957,2912
1750241236.4490225,2419
1750241236.449088,1998
1750241236.4491534,1630
1750241236.4492202,1360
1750241236.449283,1477
1750241236.4493437,2104
1750241236.4494119,2920
1750241236.449481,3405
1750241236.449547,3371
1750241236.4496136,2961
1750241236.4496822,2472
1750241236.449749,2049
1750241236.4498217,1677
1750241236.4498906,1355
1750241236.4499562,1371
1750241236.4500213,1924
1750241236.4500868,2773
1750241236.4501522,3358
1750241236.4502177,3407
1750241236.450283,3025
1750241236.4503605,2532
1750241236.4504268,2104
1750241236.4504924,1737
1750241236.45056,1387
1750241236.4506276,1327
1750241236.4506931,1827
1750241236.4507582,2723
1750241236.4508188,3417
1750241236.4508781,3540
1750241236.4509425,3163
1750241236.4510088,2638
1750241236.4510744,2194
1750241236.4511416,1833
1750241236.4512072,1458
1750241236.4512732,1288
1750241236.451338,1661
1750241236.4514039,2531
1750241236.4514697,3330
1750241236.451537,3595
1750241236.4516037,3313
1750241236.4516702,2799
1750241236.4624727,2327
1750241236.4636898,1966
1750241236.4702628,1546
1750241236.4703531,1143
1750241236.4704525,1257
1750241236.470525,2108
1750241236.4705954,3147
1750241236.4706664,3589
1750241236.4707382,3217
1750241236.4708083,2568
1750241236.4708862,2263
1750241236.4709466,2224
1750241236.4710183,1837
1750241236.4710898,1088
1750241236.4711618,976
1750241236.4712336,2165
1750241236.4713051,3647
1750241236.4713776,3519
1750241236.4714496,1230
1750241236.4715211,-1527
1750241236.4715931,-2413
1750241236.4716728,-960
1750241236.4717476,1019
1750241236.4718204,1654
1750241236.4718914,1196
1750241236.4719627,1334
1750241236.47203,2882
1750241236.4720957,4769
1750241236.472162,5407
1750241236.4722288,4329
1750241236.4735835,2485
1750241236.48169,1066
1750241236.481905,540
1750241236.4820147,695
1750241236.4825668,1350
1750241236.4826732,2352
1750241236.4827478,3331
1750241236.4828227,3774
1750241236.482893,3529
1750241236.4829545,2853
1750241236.483022,2192
1750241236.4830956,1702
1750241236.4831698,1418
1750241236.4832435,1348
1750241236.4833167,1627
1750241236.4833899,2253
1750241236.483473,2957
1750241236.483546,3293
1750241236.4836185,3123
1750241236.483691,2618
1750241236.4837632,2110
1750241236.4838352,1786
1750241236.4839072,1669
1750241236.4839787,1639
1750241236.484051,1746
1750241236.4841223,2087
1750241236.4841945,2594
1750241236.4842672,2941
1750241236.4843397,2942
1750241236.4844131,2649
1750241236.484486,2271
1750241236.4845583,1957
1750241236.4846308,1768
1750241236.4847062,1646
1750241236.48478,1664
1750241236.4848516,1953
1750241236.4849234,2463
1750241236.4849954,2872
1750241236.4853523,2954
1750241236.4869082,2734
1750241236.487003,2391
1750241236.4881318,2074
1750241236.49401,1841
1750241236.4968386,1636
1750241236.503089,1524
1750241236.5196948,1702
1750241236.5406485,2200
1750241236.5504003,2725
1750241236.5535417,2963
1750241236.5536525,2854
1750241236.5537565,2536
1750241236.5560133,2192
1750241236.5588078,1908
1750241236.5596993,1653
1750241236.5614622,1464
1750241236.5618205,1565
1750241236.562256,2042
1750241236.5625775,2632
1750241236.5864215,2960
1750241236.612273,2907
1750241236.6123571,2586
1750241236.61243,2211
1750241236.6125038,1897
1750241236.6125753,1633
1750241236.612648,1418
1750241236.6127193,1467
1750241236.6127915,1903
1750241236.6128633,2519
1750241236.6129327,2917
1750241236.6130044,2937
1750241236.613077,2654
1750241236.6132324,2279
1750241236.6133056,1935
1750241236.613367,1640
1750241236.61343,1380
1750241236.623533,1366
1750241236.6236463,1756
1750241236.6237495,2396
1750241236.6238525,2865
1750241236.6239557,2950
1750241236.6240575,2695
1750241236.6241598,2316
1750241236.624262,1956
1750241236.6243656,1654
1750241236.6244688,1375
1750241236.6245713,1303
1750241236.6246738,1630
1750241236.6250873,2272
1750241236.625194,2811
1750241236.6252968,2976
1750241236.6879113,2765
1750241236.7397387,2381
1750241236.8614168,1991
1750241236.912788,1668
1750241236.9583118,1374
1750241237.0283074,1250
1750241237.1075263,1512
1750241237.1459768,2130
1750241237.1947384,2716
1750241237.225389,2949
1750241237.2254648,2790
1750241237.2255366,2416
1750241237.2263944,2016
1750241237.250468,1682
1750241237.2506247,1383
1750241237.2507784,1215
1750241237.250874,1408
1750241237.2510536,1990
1750241237.273181,2616
1750241237.3457606,2924
1750241237.3829374,2829
1750241237.3837276,2472
1750241237.3845694,2054
1750241237.3849034,1691
1750241237.3852553,1376
1750241237.3855746,1173
1750241237.3859046,1315
1750241237.386235,1867
1750241237.3865592,2527
1750241237.386888,2895
1750241237.3872151,2851
1750241237.3875434,2512
1750241237.387873,2095
1750241237.3882012,1722
1750241237.3939393,1399
1750241237.3940542,1152
1750241237.3941596,1216
1750241237.4011667,1702
1750241237.4015336,2378
1750241237.4018967,2823
1750241237.4024189,2865
1750241237.4037125,2573
1750241237.4047463,2157
1750241237.4054737,1760
1750241237.4256318,1424
1750241237.4349997,1159
1750241237.4350908,1170
1750241237.4351692,1595
1750241237.435241,2260
1750241237.4493163,2747
1750241237.449619,2851
1750241237.450899,2603
1750241237.4555686,2201
1750241237.4556363,1789
1750241237.4556963,1437
1750241237.4557679,1144
1750241237.4558334,1099
1750241237.4558995,1468
1750241237.4559655,2121
1750241237.4560318,2641
1750241237.4561079,2825
1750241237.4562905,2684
1750241237.4563951,2311
1750241237.4564986,1831
1750241237.4566023,1427
1750241237.456706,1198
1750241237.4568233,1240
1750241237.4569244,1581
1750241237.4569926,2097
1750241237.4570606,2590
1750241237.4571283,2961
1750241237.4571953,3002
1750241237.4572604,2402
1750241237.45733,1209
1750241237.4573965,73
1750241237.4574873,-311
1750241237.458884,217
1750241237.4601123,1240
1750241237.49792,2214
1750241237.5472434,3022
1750241237.5477839,3994
1750241237.5478687,5214
1750241237.5481918,6070
1750241237.577471,5851
1750241237.5775707,4527
1750241237.5776327,2754
1750241237.5776932,1348
1750241237.577753,830
1750241237.5778124,1131
1750241237.5779288,1775
1750241237.6098855,2352
1750241237.615885,2761
1750241237.6159625,2997
1750241237.635153,3081
1750241237.6352696,3006
1750241237.635374,2697
1750241237.635479,2147
1750241237.635583,1696
1750241237.6711352,1716
1750241237.697816,2170
1750241237.6980474,2627
1750241237.7037115,2803
1750241237.7040415,2694
1750241237.705517,2500
1750241237.7065523,2323
1750241237.7066257,2110
1750241237.7066967,1808
1750241237.7067673,1729
1750241237.7069378,2173
1750241237.7070096,2934
1750241237.70708,3330
1750241237.7071502,2975
1750241237.7072206,2057
1750241237.70729,1162
1750241237.7073598,698
1750241237.7074294,677
1750241237.7074993,848
1750241237.707569,1225
1750241237.7076387,1953
1750241237.7077081,2880
1750241237.7077777,3445
1750241237.7078474,3303
1750241237.7079172,2566
1750241237.7079866,1655
1750241237.7080562,887
1750241237.708126,370
1750241237.708195,93
1750241237.7082653,239
1750241237.708335,989
1750241237.719265,2141
1750241237.870605,3071
1750241237.9394863,3317
1750241237.9534078,2877
1750241237.9537563,2062
1750241237.9540985,1194
1750241237.9544506,512
1750241237.9548523,189
1750241237.955266,395
1750241237.9556267,1157
1750241237.955949,2150
1750241238.0058143,2822
1750241238.0153897,2871
1750241238.028941,2453
1750241238.0290308,1883
1750241238.0291033,1353
1750241238.0293517,934
1750241238.0294206,694
1750241238.0294921,769
1750241238.0295663,1253
1750241238.0296376,1963
1750241238.0297093,2509
1750241238.029781,2630
1750241238.0298529,2397
1750241238.0299249,1975
1750241238.029997,1512
1750241238.0300696,1130
1750241238.0301409,959
1750241238.030212,1010
1750241238.030283,1219
1750241238.0303533,1411
1750241238.0304244,1497
1750241238.0304956,1557
1750241238.0305667,1771
1750241238.030638,2040
1750241238.030709,2101
1750241238.0307798,1813
1750241238.0308506,1395
1750241238.0309262,1156
1750241238.0309973,1307
1750241238.0423717,1712
1750241238.0656292,2061
1750241238.0832527,2113
1750241238.0844107,1958
1750241238.084654,1754
1750241238.085023,1597
1750241238.0851545,1459
1750241238.085477,1347
1750241238.085584,1261
1750241238.085722,1335
1750241238.0860815,1636
1750241238.0861862,2039
1750241238.097293,2245
1750241238.0986412,2167
1750241238.0987544,1909
1750241238.1017797,1660
1750241238.102173,1491
1750241238.1027346,1379
1750241238.1072693,1228
1750241238.1888435,1157
1750241238.1889842,1367
1750241238.1892326,1845
1750241238.214434,2261
1750241238.2506392,2388
1750241238.2507136,2228
1750241238.2507803,1942
1750241238.2570717,1658
1750241238.2571533,1414
1750241238.2572205,1153
1750241238.2769365,987
1750241238.3221366,1151
1750241238.3252745,1677
1750241238.329119,2234
1750241238.3352833,2504
1750241238.369523,2419
1750241238.3842893,2106
1750241238.4018977,1735
1750241238.402291,1404
1750241238.4026618,1098
1750241238.4029915,895
1750241238.4033604,1032
1750241238.404151,1570
1750241238.4121716,2208
1750241238.412247,2573
1750241238.412316,2546
1750241238.412383,2227
1750241238.4124496,1818
1750241238.412517,1451
1750241238.4125836,1139
1750241238.4170823,916
1750241238.460421,1002
1750241238.461925,1490
1750241238.4707298,2138
1750241238.4708433,2562
1750241238.4769483,2617
1750241238.4985979,2352
1750241238.4986777,1940
1750241238.4987502,1527
1750241238.49882,1187
1750241238.4988806,941
1750241238.4989593,979
1750241238.4990304,1406
1750241238.4991007,2037
1750241238.4991713,2507
1750241238.499242,2639
1750241238.499313,2402
1750241238.499385,1910
1750241238.4994562,1369
1750241238.4995272,985
1750241238.4995975,832
1750241238.4996676,1047
1750241238.4997382,1717
1750241238.499809,2626
1750241238.4998786,3292
1750241238.499949,3398
1750241238.5000186,2905
1750241238.500089,2037
1750241238.5001585,1096
1750241238.5002284,231
1750241238.5002987,-613
1750241238.5003688,-1211
1750241238.500439,-995
1750241238.5005093,341
1750241238.5005789,2348
1750241238.500649,4192
1750241238.5007188,5261
1750241238.5007887,5428
1750241238.5008585,4969
1750241238.500937,4193
1750241238.5010064,3202
1750241238.5010757,2227
1750241238.5011451,1693
1750241238.5012145,1796
1750241238.5012803,2279
1750241238.501342,2813
1750241238.5014114,3242
1750241238.5014808,3462
1750241238.5015502,3347
1750241238.5016203,2933
1750241238.5016901,2536
1750241238.5019476,2603
1750241238.5021396,3236
1750241238.5022447,3839
1750241238.5081909,3637
1750241238.5100284,2591
1750241238.548565,1503
1750241238.6129804,1047
1750241238.6133604,1132
1750241238.6134367,1167
1750241238.6135101,875
1750241238.6138825,589
1750241238.6144638,895
1750241238.6199582,1866
1750241238.6623986,2956
1750241238.7202406,3516
1750241238.7406256,3400
1750241238.74074,2776
1750241238.7408617,1914
1750241238.7409823,1037
1750241238.7410908,416
1750241238.7411997,283
1750241238.741307,817
1750241238.741428,1809
1750241238.741537,2790
1750241238.7416456,3256
1750241238.7609127,3094
1750241238.7854352,2477
1750241238.7960272,1725
1750241238.796226,1098
1750241238.8023355,810
1750241238.8038445,899
1750241238.8039536,1338
1750241238.8040586,1924
1750241238.8041632,2375
1750241238.8042667,2482
1750241238.8045518,2371
1750241238.8550792,2220
1750241238.858271,2077
1750241238.8583517,1846
1750241238.8644502,1543
1750241238.8655336,1279
1750241238.8659205,1306
1750241238.868212,1726
1750241238.868462,2329
1750241238.8686004,2691
1750241238.8686733,2639
1750241238.8687475,2293
1750241238.8688195,1900
1750241238.8688915,1606
1750241238.868964,1444
1750241238.8690355,1323
1750241238.8691082,1294
1750241238.86918,1515
1750241238.8692515,1990
1750241238.8693132,2437
1750241238.8693802,2592
1750241238.8694518,2424
1750241238.8695235,2081
1750241238.8695953,1730
1750241238.8696673,1463
1750241238.8697398,1238
1750241238.8698118,1106
1750241238.8698833,1274
1750241238.8699548,1795
1750241238.870027,2377
1750241238.8700984,2676
1750241238.8701704,2602
1750241238.8702419,2262
1750241238.8703136,1852
1750241238.8703854,1494
1750241238.8704574,1195
1750241238.8705292,993
1750241238.8706055,1118
1750241238.870677,1657
1750241238.8707492,2341
1750241238.8708208,2759
1750241238.8708928,2767
1750241238.8709648,2464
1750241238.8710368,2058
1750241238.871109,1664
1750241238.871181,1286
1750241238.871253,964
1750241238.8713253,991
1750241238.871397,1538
1750241238.8714676,2355
1750241238.8715394,2911
1750241238.871611,2956
1750241238.8716822,2588
1750241238.911942,2109
1750241238.9527655,1697
1750241238.9531784,1355
1750241238.9534018,1032
1750241238.9575248,956
1750241238.9576492,1352
1750241238.957758,2100
1750241238.9578655,2716
1750241238.9579735,2897
1750241238.9580815,2656
1750241238.9581888,2236
1750241238.9582956,1818
1750241238.9584126,1445
1750241238.958521,1079
1750241238.9586277,934
1750241238.9587348,1285
1750241238.9588413,2063
1750241238.9589484,2751
1750241238.959062,2958
1750241238.9591684,2686
1750241238.9592752,2246
1750241238.959382,1871
1750241238.9594896,1565
1750241238.9595983,1194
1750241238.959706,934
1750241238.959798,1176
1750241238.9598718,1978
1750241238.959944,2792
1750241238.960016,3054
1750241238.9600878,2707
1750241238.9601603,2163
1750241238.9602325,1814
1750241238.960305,1660
1750241238.9603765,1409
1750241238.9604487,1046
1750241238.9605207,990
1750241238.9605927,1515
1750241238.9606652,2291
1750241238.9607356,2742
1750241238.9608052,2642
1750241238.9608743,2202
1750241238.960944,1771
1750241238.9610176,1476
1750241238.9610865,1205
1750241238.961156,956
1750241238.961225,1040
1750241238.9614213,1618
1750241238.9614913,2374
1750241238.9615612,2782
1750241238.96163,2681
1750241238.9616992,2267
1750241238.9617777,1858
1750241238.9618478,1561
1750241238.9619172,1288
1750241238.961987,1005
1750241238.9620583,992
1750241238.9621272,1451
1750241238.9621968,2166
1750241238.9622672,2642
1750241238.962337,2660
1750241238.9624064,2330
1750241238.9624758,1935
1750241238.9625456,1608
1750241238.9626153,1321
1750241238.9626844,1022
1750241238.9627542,947
1750241238.962824,1312
1750241238.9628932,1986
1750241238.9629726,2503
1750241238.963042,2603
1750241238.9631112,2334
1750241238.9631805,1942
1750241238.9632497,1580
1750241238.963319,1275
1750241238.9633882,975
1750241238.9634573,878
1750241238.9635262,1214
1750241238.963596,1907
1750241238.9636645,2502
1750241238.9637344,2680
1750241238.9638035,2448
1750241238.963873,2052
1750241238.9639413,1680
1750241238.9640105,1376
1750241238.9640796,1067
1750241238.9641483,896
1750241238.9642184,1130
1750241238.964288,1774
1750241238.964357,2411
1750241238.964426,2665
1750241238.9644952,2491
1750241238.9645643,2117
1750241238.9646332,1763
1750241238.9647026,1489
1750241239.0294654,1202
1750241239.045509,975
1750241239.0456178,1075
1750241239.0456975,1589
1750241239.0457752,2204
1750241239.0458536,2542
1750241239.0478475,2498
1750241239.0479264,2194
1750241239.0480042,1812
1750241239.0480819,1461
1750241239.0481591,1154
1750241239.0482366,968
1750241239.0483136,1113
1750241239.0484056,1614
1750241239.0484872,2184
1750241239.048565,2490
1750241239.0486422,2474
1750241239.0487194,2225
1750241239.0487964,1866
1750241239.0488734,1473
1750241239.0489504,1115
1750241239.0490274,899
1750241239.049104,1038
1750241239.0491812,1539
1750241239.0492582,2122
1750241239.049335,2447
1750241239.0494125,2468
1750241239.049502,2276
1750241239.0495787,1967
1750241239.0496552,1575
1750241239.0497317,1171
1750241239.0498087,875
1750241239.049885,943
1750241239.0499675,1437
1750241239.050044,2100
1750241239.050121,2525
1750241239.0501986,2599
1750241239.0502777,2408
1750241239.050354,2089
1750241239.0504308,1694
1750241239.050508,1287
1750241239.0505848,944
1750241239.0506616,896
1750241239.050738,1266
1750241239.0551052,1885
1750241239.0551872,2361
1750241239.055258,2523
1750241239.0553288,2405
1750241239.0554066,2117
1750241239.055477,1714
1750241239.0555475,1281
1750241239.055617,910
1750241239.0556872,832
1750241239.0557568,1210
1750241239.0558267,1896
1750241239.0558968,2461
1750241239.055967,2655
1750241239.056037,2514
1750241239.0561068,2202
1750241239.0561767,1824
1750241239.0562463,1434
1750241239.0563157,1053
1750241239.056386,855
1750241239.0564559,1081
1750241239.0565255,1708
1750241239.0565956,2345
1750241239.0566654,2638
1750241239.0567348,2549
1750241239.056804,2249
1750241239.0568736,1906
1750241239.056943,1569
1750241239.0570126,1196
1750241239.057082,890
1750241239.0571513,960
1750241239.057221,1510
1750241239.0572863,2213
1750241239.0573533,2607
1750241239.057423,2556
1750241239.0574925,2227
1750241239.057562,1884
1750241239.0576313,1614
1750241239.0577009,1330
1750241239.0577705,1016
1750241239.0578403,968
1750241239.0579097,1397
1750241239.057979,2094
1750241239.0580492,2569
1750241239.0581188,2591
1750241239.0581882,2263
1750241239.0582576,1875
1750241239.0583267,1570
1750241239.0584173,1308
1750241239.0584888,1025
1750241239.0585587,965
1750241239.058629,1354
1750241239.058699,2050
1750241239.0587695,2571
1750241239.058835,2650
1750241239.0588956,2353
1750241239.0589666,1962
1750241239.0590367,1638
1750241239.0591078,1366
1750241239.0591776,1059
1750241239.0592477,924
1750241239.0593252,1225
1750241239.0593953,1904
1750241239.059465,2501
1750241239.0595353,2687
1750241239.0596056,2461
1750241239.0596752,2071
1750241239.0597453,1707
1750241239.059816,1401
1750241239.059886,1076
1750241239.0599563,895
1750241239.0600262,1138
1750241239.0600955,1801
1750241239.060165,2452
1750241239.060235,2713
1750241239.0603044,2536
1750241239.0603745,2146
1750241239.0604446,1759
1750241239.0605145,1441
1750241239.0605845,1112
1750241239.0606544,887
1750241239.0607238,1055
1750241239.0607934,1679
1750241239.0608633,2374
1750241239.0609329,2717
1750241239.0610385,2605
1750241239.0801296,2229
1750241239.1009576,1830
1750241239.1347754,1502
1750241239.1352832,1174
1750241239.1425405,901
1750241239.1427062,977
1750241239.163842,1530
1750241239.1786752,2251
1750241239.1787653,2679
1750241239.1803615,2648
1750241239.2013743,2293
1750241239.2814596,1879
1750241239.401428,1543
1750241239.5155826,1240
1750241239.5435762,948
1750241239.5747464,944
1750241239.579132,1422
1750241239.5792482,2153
1750241239.579944,2664
1750241239.5832295,2739
1750241239.5833097,2402
1750241239.5833828,1871
1750241239.5834553,1387
1750241239.5835285,1072
1750241239.5835996,907
1750241239.583671,1014
1750241239.5837421,1509
1750241239.5838134,2298
1750241239.5838845,3051
1750241239.583956,3411
1750241239.5840273,3003
1750241239.5840986,1773
1750241239.5841694,275
1750241239.5842407,-613
1750241239.584331,-484
1750241239.584404,401
1750241239.5844746,1404
1750241239.5845451,2119
1750241239.5846162,2685
1750241239.584687,3504
1750241239.58476,4426
1750241239.5848413,4692
1750241239.5849135,3739
1750241239.5849848,1851
1750241239.5852118,-128
1750241239.585306,-1336
1750241239.585382,-1404
1750241239.585457,-600
1750241239.5855315,500
1750241239.5856402,1528
1750241239.5857172,2311
1750241239.5857937,2719
1750241239.5858684,2680
1750241239.5859425,2265
1750241239.5860455,1612
1750241239.586124,1000
1750241239.5861986,782
1750241239.5862732,1054
1750241239.5863554,1523
1750241239.5864303,1853
1750241239.5865378,1990
1750241239.5866132,2035
1750241239.5866883,2061
1750241239.5867636,1989
1750241239.5868375,1684
1750241239.5869393,1226
1750241239.587015,1028
1750241239.5870888,1354
1750241239.5871642,1984
1750241239.5872705,2455
1750241239.5873868,2587
1750241239.5874653,2464
1750241239.58754,2255
1750241239.587614,1978
1750241239.5876877,1576
1750241239.5877619,1137
1750241239.5975628,1078
1750241239.5978825,1638
1750241239.597965,2515
1750241239.598048,3086
1750241239.5981352,3102
1750241239.5982337,2736
1750241239.5983217,2325
1750241239.5984147,1977
1750241239.5985808,1603
1750241239.5986784,1151
1750241239.5987632,954
1750241239.5988462,1329
1750241239.5989301,2131
1750241239.599039,2783
1750241239.5991442,2938
1750241239.599226,2647
1750241239.5993078,2202
1750241239.599389,1791
1750241239.5994706,1421
1750241239.5995667,1037
1750241239.5996487,905
1750241239.5997298,1346
1750241239.5998106,2253
1750241239.5999603,3008
1750241239.6000342,3172
1750241239.6001108,2812
1750241239.6001852,2334
1750241239.6002595,1966
1750241239.6003332,1641
1750241239.600422,1227
1750241239.6004958,1022
1750241239.60099,1467
1750241239.6011178,2452
1750241239.6011922,3082
1750241239.6012948,2566
1750241239.6013691,1044
1750241239.6014426,-450
1750241239.6015167,-934
1750241239.6015909,-250
1750241239.6016648,912
1750241239.6017761,1847
1750241239.6018498,2405
1750241239.6019228,2813
1750241239.6019955,3180
1750241239.6020725,3411
1750241239.6078768,3379
1750241239.6079686,3007
1750241239.6080418,2322
1750241239.608113,1491
1750241239.6081853,802
1750241239.6082551,596
1750241239.6083245,1110
1750241239.6084063,2142
1750241239.608477,3097
1750241239.6085463,3405
1750241239.6086154,2997
1750241239.608685,2209
1750241239.6087542,1486
1750241239.6088233,1090
1750241239.6088927,1076
1750241239.6089618,1358
1750241239.6090312,1905
1750241239.609128,2570
1750241239.677911,3047
1750241239.7138379,3028
1750241239.7162323,2573
1750241239.7163162,1988
1750241239.716404,1597
1750241239.7164955,1475
1750241239.7169378,1492
1750241239.7447104,1500
1750241239.8265154,1632
1750241239.830272,2021
1750241239.8304296,2528
1750241239.830638,2797
1750241239.830767,2710
1750241239.8309305,2389
1750241239.831164,2072
1750241239.8370502,1847
1750241239.9057498,1655
1750241239.944201,1408
1750241239.9459693,1307
1750241239.9463546,1587
1750241239.9466946,2179
1750241239.947197,2675
1750241239.9475448,2817
1750241239.9478853,2614
1750241239.9482484,2270
1750241239.949681,1925
1750241239.9497626,1612
1750241239.949838,1289
1750241239.94991,1143
1750241239.9499807,1417
1750241239.9500482,2067
1750241239.950118,2666
1750241239.9501855,2890
1750241239.9502544,2715
1750241239.9757097,2341
1750241239.9758525,1950
1750241239.9794025,1608
1750241239.9794838,1273
1750241239.9795675,1087
1750241239.9796412,1316
1750241239.9802825,1970
1750241239.9807434,2646
1750241240.007043,2955
1750241240.0389373,2829
1750241240.0391273,2453
1750241240.0392737,2042
1750241240.0393455,1684
1750241240.0394118,1336
1750241240.0394864,1094
1750241240.0395627,1242
1750241240.039638,1850
1750241240.0397153,2563
1750241240.039863,2945
1750241240.039939,2880
1750241240.0400143,2527
1750241240.0400896,2125
1750241240.0401657,1777
1750241240.0402403,1439
1750241240.0403156,1141
1750241240.0403912,1171
1750241240.040466,1659
1750241240.0405438,2317
1750241240.0406187,2703
1750241240.0406933,2705
1750241240.0407686,2424
1750241240.040843,2005
1750241240.0409179,1560
1750241240.040992,1162
1750241240.0410666,911
1750241240.0411417,1046
1750241240.041217,1606
1750241240.052873,2316
1750241240.05295,2832
1750241240.0530174,3053
1750241240.1218395,2809
1750241240.121933,1802
1750241240.1220152,-54
1750241240.122096,-2276
1750241240.122176,-4013
1750241240.1222563,-4511
1750241240.122337,-3771
1750241240.1224174,-2536
1750241240.122497,-1613
1750241240.1225765,-1135
1750241240.1226552,-803
1750241240.1227353,-366
1750241240.122815,176
1750241240.1228943,723
1750241240.122974,1149
1750241240.1230593,1525
1750241240.1231234,1980
1750241240.1231902,2481
1750241240.123257,2827
1750241240.1233218,2961
1750241240.1233873,2902
1750241240.1234539,2646
1750241240.1235197,2164
1750241240.1235852,1540
1750241240.1236503,938
1750241240.1237152,696
1750241240.1237805,1132
1750241240.1238463,2160
1750241240.1239197,3211
1750241240.123996,3705
1750241240.1240726,3489
1750241240.1241488,2798
1750241240.1242244,1994
1750241240.1243007,1357
1750241240.124377,993
1750241240.124453,992
1750241240.1245296,1481
1750241240.1246057,2337
1750241240.124682,3103
1750241240.1247578,3347
1750241240.124834,3067
1750241240.1249104,2542
1750241240.124986,2076
1750241240.1250732,1765
1750241240.1251495,1549
1750241240.1252255,1416
1750241240.1253018,1575
1750241240.1253777,2109
1750241240.1254535,2748
1750241240.12553,3072
1750241240.1534266,2968
1750241240.1535664,2576
1750241240.1537073,2152
1750241240.1538482,1824
1750241240.1544144,1603
1750241240.1737092,1471
1750241240.1951683,1604
1750241240.195468,2091
1750241240.2022543,2724
1750241240.20233,3089
1750241240.2028131,3035
1750241240.2036874,2672
1750241240.2056913,2251
1750241240.223521,1907
1750241240.226477,1663
1750241240.2265515,1463
1750241240.2271357,1464
1750241240.2457652,1817
1750241240.2458735,2415
1750241240.245957,2865
1750241240.2460394,2947
1750241240.2461185,2702
1750241240.2461984,2356
1750241240.2962387,2053
1750241240.311427,1817
1750241240.3115463,1568
1750241240.3116565,1458
1750241240.3117843,1725
1750241240.312981,2344
1750241240.3132818,2894
1750241240.3133569,3044
1750241240.31343,2799
1750241240.3135026,2434
1750241240.3135753,2161
1750241240.3167946,1983
1750241240.3168602,1747
1750241240.3169239,1549
1750241240.3169866,1706
1750241240.3170578,2308
1750241240.317128,2951
1750241240.3171995,3184
1750241240.3172646,2926
1750241240.3173237,2454
1750241240.3173943,2075
1750241240.3174646,1864
1750241240.3175347,1671
1750241240.3176043,1501
1750241240.317676,1633
1750241240.317752,2189
1750241240.317822,2845
1750241240.3178928,3157
1750241240.3179634,3009
1750241240.318034,2604
1750241240.3181047,2220
1750241240.3181756,1943
1750241240.318246,1684
1750241240.3183162,1447
1750241240.3183868,1520
1750241240.3839612,2053
1750241240.4494023,2759
1750241240.4497595,3158
1750241240.449931,3092
1750241240.4500773,2723
1750241240.4502215,2336
1750241240.4504888,2033
1750241240.4506378,1744
1750241240.450798,1439
1750241240.4513009,1401
1750241240.4514616,1839
1750241240.4516473,2552
1750241240.4569743,3039
1750241240.457483,3068
1750241240.4576993,2744
1750241240.4591193,2353
1750241240.4592626,2031
1750241240.4593945,1741
1750241240.4595509,1422
1750241240.4596815,1319
1750241240.4598112,1686
1750241240.4599557,2402
1750241240.4600854,2968
1750241240.460216,3085
1750241240.4603586,2801
1750241240.460488,2395
1750241240.4606235,2045
1750241240.4607759,1756
1750241240.4609056,1450
1750241240.461034,1317
1750241240.4612951,1627
1750241240.4689457,2330
1750241240.469055,2951
1750241240.469179,3130
1750241240.4716709,2868
1750241240.4718013,2432
1750241240.4719057,2044
1750241240.4720087,1752
1750241240.4721122,1459
1750241240.472215,1270
1750241240.4731114,1458
1750241240.4732153,2065
1750241240.473319,2712
1750241240.4734232,3018
1750241240.4735262,2897
1750241240.473629,2518
1750241240.4737318,2091
1750241240.473835,1727
1750241240.473938,1396
1750241240.479725,1190
1750241240.4797988,1362
1750241240.4798646,1958
1750241240.4799263,2625
1750241240.4799948,2954
1750241240.4800618,2858
1750241240.4801269,2508
1750241240.480192,2129
1750241240.4802573,1803
1750241240.4803262,1478
1750241240.4803915,1197
1750241240.4804566,1253
1750241240.480522,1788
1750241240.4805872,2509
1750241240.480652,2937
1750241240.480717,2903
1750241240.4807823,2548
1750241240.4808486,2150
1750241240.4809268,1825
1750241240.480992,1523
1750241240.4810572,1222
1750241240.4811223,1205
1750241240.481188,1676
1750241240.4812536,2420
1750241240.4813197,2923
1750241240.4813857,2944
1750241240.4814546,2594
1750241240.4815197,2185
1750241240.4815848,1868
1750241240.4816506,1603
1750241240.4817164,1302
1750241240.4817946,1197
1750241240.4818597,1547
1750241240.481924,2251
1750241240.4819894,2820
1750241240.482054,2950
1750241240.4821184,2673
1750241240.4821837,2260
1750241240.4822488,1896
1750241240.4823143,1602
1750241240.4823787,1301
1750241240.4824443,1171
1750241240.4825099,1465
1750241240.4825754,2134
1750241240.4826398,2730
1750241240.482705,2922
1750241240.482771,2702
1750241240.4828372,2300
1750241240.482913,1906
1750241240.4829783,1586
1750241240.4830427,1290
1750241240.4831073,1157
1750241240.483173,1442
1750241240.4832377,2122
1750241240.4833033,2762
1750241240.4833682,2987
1750241240.4834335,2777
1750241240.4834983,2366
1750241240.483563,1980
1750241240.483629,1668
1750241240.483694,1336
1750241240.4837584,1066
1750241240.4838233,1183
1750241240.483888,1803
1750241240.4839525,2554
1750241240.4840174,2943
1750241240.4840825,2820
1750241240.484148,2373
1750241240.4842124,1904
1750241240.4842772,1546
1750241240.4843419,1230
1750241240.4844084,976
1750241240.484473,1094
1750241240.4845383,1738
1750241240.484603,2579
1750241240.4846675,3058
1750241240.4847324,2977
1750241240.484825,2534
1750241240.5091014,2082
1750241240.5726023,1755
1750241240.6461906,1450
1750241240.6814272,1106
1750241240.7933424,1036
1750241240.850067,1506
1750241240.858124,2317
1750241240.858258,2906
1750241240.859025,2974
1750241240.860315,2612
1750241240.8607326,2150
1750241240.8608913,1772
1750241240.8612275,1459
1750241240.8613408,1140
1750241240.8684871,1045
1750241240.868955,1421
1750241240.8690913,2147
1750241240.8691955,2729
1750241240.8695905,2863
1750241240.8697007,2582
1750241240.8698049,2153
1750241240.8701692,1759
1750241240.8703372,1438
1750241240.870444,1134
1750241240.870548,1027
1750241240.8706524,1353
1750241240.8707566,2045
1750241240.8708606,2648
1750241240.870966,2832
1750241240.87107,2596
1750241240.8711739,2176
1750241240.8712783,1775
1750241240.8713844,1461
1750241240.8714888,1171
1750241240.8715925,1023
1750241240.8722436,1260
1750241240.872348,1886
1750241240.8724525,2509
1750241240.8725557,2765
1750241240.8726592,2600
1750241240.8727624,2207
1750241240.8741674,1801
1750241240.8774385,1478
1750241240.8929722,1190
1750241240.9065037,1011
1750241240.9251544,1185
1750241240.9252427,1769
1750241240.9253309,2425
1750241240.9259431,2757
1750241240.9260888,2665
1750241240.926195,2295
1750241240.926446,1877
1750241240.9265454,1532
1750241240.9489892,1239
1750241240.9495842,1030
1750241240.9498608,1146
1750241240.949938,1682
1750241240.952239,2360
1750241240.952355,2754
1750241240.9524634,2719
1750241240.9525862,2368
1750241240.9526942,1944
1750241240.9528074,1578
1750241240.9529767,1267
1750241240.9590166,1013
1750241240.96291,1056
1750241240.963064,1542
1750241240.9631953,2254
1750241240.9633238,2730
1750241240.9634662,2763
1750241240.9635944,2439
1750241240.9637227,2014
1750241240.963851,1639
1750241240.9639928,1329
1750241240.964122,1057
1750241240.96425,1044
1750241240.964671,1484
1750241240.964816,2223
1750241240.964946,2777
1750241240.9650908,2879
1750241240.9653254,2577
1750241240.9689302,2134
1750241240.969016,1726
1750241240.9690962,1393
1750241240.9691758,1080
1750241240.9692552,967
1750241240.9693172,1282
1750241240.9693909,1963
1750241240.9694698,2568
1750241240.969548,2777
1750241240.9696267,2569
1750241240.9697049,2159
1750241240.9697838,1740
1750241240.9698625,1399
1750241240.9699416,1096
1750241240.9700208,962
1750241240.9700997,1229
1750241240.9701784,1882
1750241240.970257,2519
1750241240.9703355,2782
1750241240.9704142,2621
1750241240.9705007,2226
1750241240.9705784,1807
1750241240.970657,1461
1750241240.9707348,1152
1750241240.9708087,973
1750241240.970869,1181
1750241240.9709427,1817
1750241240.9853165,2510
1750241240.985429,2841
1750241240.9855337,2720
1750241240.9856377,2328
1750241240.9857407,1913
1750241240.9858437,1579
1750241240.985947,1272
1750241240.9860501,1023
1750241240.9861531,1096
1750241240.986263,1613
1750241240.986366,2300
1750241240.9864683,2716
1750241240.986572,2698
1750241240.986676,2355
1750241240.9902527,1934
1750241241.0715208,1574
1750241241.0732186,1272
1750241241.0831811,1026
1750241241.0865407,1070
1750241241.0919352,1544
1750241241.0920453,2233
1750241241.0923865,2685
1750241241.0925007,2708
1750241241.092891,2388
1750241241.0964255,1973
1750241241.096797,1603
1750241241.0969045,1293
1750241241.097311,1021
1750241241.0974195,1019
1750241241.0975232,1472
1750241241.0978162,2212
1750241241.097925,2749
1750241241.0980673,2825
1750241241.1046574,2513
1750241241.1048067,2096
1750241241.104914,1737
1750241241.1050189,1441
1750241241.1051445,1134
1750241241.10525,1011
1750241241.105353,1326
1750241241.105457,2016
1750241241.105561,2618
1750241241.106285,2800
1750241241.1065965,2562
1750241241.1121297,2151
1750241241.1122408,1762
1750241241.1123462,1447
1750241241.1124501,1139
1750241241.112553,981
1750241241.1132762,1232
1750241241.1133854,1884
1750241241.1134906,2518
1750241241.1135945,2765
1750241241.1136982,2584
1750241241.113802,2188
1750241241.1139057,1790
1750241241.1140091,1469
1750241241.1141245,1169
1750241241.1142282,984
1750241241.1143317,1180
1750241241.1144361,1800
1750241241.1145396,2473
1750241241.1146426,2786
1750241241.1147459,2658
1750241241.114849,2273
1750241241.1149528,1867
1750241241.1150787,1532
1750241241.1151872,1218
1750241241.1152692,977
1750241241.1153395,1082
1750241241.1154099,1641
1750241241.11548,2345
1750241241.1155498,2739
1750241241.1156194,2677
1750241241.1156895,2307
1750241241.1157727,1894
1750241241.115844,1560
1750241241.1159143,1268
1750241241.115985,1012
1750241241.1164942,1044
1750241241.1372552,1518
1750241241.1789315,2210
1750241241.1870718,2655
1750241241.214516,2661
1750241241.221171,2342
1750241241.222521,1973
1750241241.2226362,1685
1750241241.222713,1439
1750241241.2227902,1165
1750241241.2228553,1081
1750241241.222923,1400
1750241241.2229984,2019
1750241241.223103,2509
1750241241.223181,2620
1750241241.223256,2379
1750241241.2233317,2017
1750241241.2234063,1685
1750241241.2269351,1415
1750241241.2646418,1161
1750241241.2647364,1098
1750241241.278611,1414
1750241241.3107824,2022
1750241241.3114805,2506
1750241241.3115532,2612
1750241241.3116255,2375
1750241241.3116972,2021
1750241241.3117735,1700
1750241241.3118455,1440
1750241241.3119173,1181
1750241241.3119888,1070
1750241241.3120608,1337
1750241241.3121321,1950
1750241241.3122027,2505
1750241241.3122745,2681
1750241241.3123455,2480
1750241241.312417,2119
1750241241.3124876,1782
1750241241.3125596,1508
1750241241.3126414,1222
1750241241.3127127,1033
1750241241.3127837,1222
1750241241.3128545,1830
1750241241.312926,2476
1750241241.3129976,2759
1750241241.3130689,2620
1750241241.3131402,2257
1750241241.313212,1896
1750241241.3132727,1596
1750241241.3133395,1280
1750241241.3134108,1012
1750241241.313482,1098
1750241241.3135536,1654
1750241241.3136244,2360
1750241241.3136961,2751
1750241241.313767,2691
1750241241.3138385,2338
1750241241.313909,1951
1750241241.31398,1630
1750241241.3140516,1319
1750241241.3141222,1033
1750241241.3141932,1057
1750241241.3142645,1561
1750241241.3143358,2291
1750241241.3146749,2756
1750241241.314757,2758
1750241241.316526,2420
1750241241.3167274,2020
1750241241.3169456,1685
1750241241.3171139,1373
1750241241.3177166,1053
1750241241.3586922,994
1750241241.3888884,1424
1750241241.3889647,2171
1750241241.3890362,2720
1750241241.3891082,2795
1750241241.3891795,2476
1750241241.3892508,2056
1750241241.3893332,1701
1750241241.3894057,1398
1750241241.3894763,1077
1750241241.3895478,973
1750241241.3896186,1350
1750241241.3896897,2108
1750241241.3897603,2729
1750241241.3898308,2873
1750241241.389902,2583
1750241241.3899732,2160
1750241241.390044,1798
1750241241.3901145,1496
1750241241.3901858,1149
1750241241.390257,936
1750241241.390327,1171
1750241241.3903987,1858
1750241241.390469,2535
1750241241.39054,2798
1750241241.3906105,2610
1750241241.3906808,2215
1750241241.3907516,1837
1750241241.3908226,1528
1750241241.3909023,1202
1750241241.3909729,970
1750241241.3910437,1129
1750241241.3911147,1735
1750241241.3911848,2401
1750241241.3912554,2710
1750241241.3913305,2578
1750241241.3914003,2198
1750241241.3914714,1804
1750241241.3915417,1484
1750241241.3916118,1179
1750241241.3916826,947
1750241241.3917856,1065
1750241241.3988285,1634
1750241241.3989112,2331
1750241241.3989844,2711
1750241241.3990567,2645
1750241241.3991325,2288
1750241241.3992052,1891
1750241241.3992772,1563
1750241241.3993492,1258
1750241241.399421,990
1750241241.3994923,1031
1750241241.3995633,1534
1750241241.3996341,2247
1750241241.3997056,2693
1750241241.3997762,2681
1750241241.399847,2324
1750241241.3999178,1897
1750241241.399989,1541
1750241241.40006,1243
1750241241.400131,970
1750241241.4002023,956
1750241241.400274,1392
1750241241.4003444,2111
1750241241.4004142,2648
1750241241.4004848,2756
1750241241.400566,2475
1750241241.4006376,2053
1750241241.4007084,1657
1750241241.4007788,1325
1750241241.4008498,1017
1750241241.400921,919
1750241241.4009917,1239
1750241241.401063,1894
1750241241.4011352,2464
1750241241.401195,2667
1750241241.4012582,2485
1750241241.401326,2110
1750241241.4013865,1707
1750241241.4014516,1359
1750241241.4015174,1046
1750241241.4015834,933
1750241241.4016485,1238
1750241241.4017148,1909
1750241241.4088411,2519
1750241241.4091594,2739
1750241241.4094522,2547
1750241241.4095592,2158
1750241241.4096622,1768
1750241241.4097786,1446
1750241241.4098525,1130
1750241241.410018,934
1750241241.4100864,1128
1750241241.4101517,1749
1750241241.4102182,2413
1750241241.4102795,2715
1750241241.410341,2573
1750241241.4104013,2177
1750241241.410465,1765
1750241241.410531,1435
1750241241.4105937,1135
1750241241.4106588,923
1750241241.4107258,1065
1750241241.41079,1648
1750241241.4108546,2349
1750241241.4109325,2736
1750241241.4109998,2680
1750241241.4110663,2317
1750241241.4111319,1880
1750241241.4111967,1491
1750241241.411263,1145
1750241241.4113257,892
1750241241.4113889,998
1750241241.4114516,1571
1750241241.411514,2315
1750241241.4115746,2759
1750241241.4116385,2743
1750241241.4117043,2399
1750241241.4117863,1980
1750241241.4118514,1600
1750241241.411917,1243
1750241241.4634423,920
1750241241.463532,914
1750241241.4636118,1416
1750241241.4636917,2209
1750241241.4637709,2772
1750241241.46385,2850
1750241241.4639294,2535
1750241241.4640057,2113
1750241241.4640772,1745
1750241241.4645588,1425
1750241241.4646413,1088
1750241241.46472,948
1750241241.4647982,1251
1750241241.4648762,1918
1750241241.4649544,2498
1750241241.4650333,2681
1750241241.4651258,2458
1750241241.4652035,2053
1750241241.4653363,1655
1750241241.477414,1336
1750241241.4944115,1049
1750241241.551882,937
1750241241.5815399,1215
1750241241.5899055,1847
1750241241.670122,2436
1750241241.6702368,2665
1750241241.670342,2491
1750241241.6704452,2084
1750241241.6710505,1631
1750241241.6711352,1247
1750241241.6712167,924
1750241241.6712956,783
1750241241.671375,1042
1750241241.6714532,1684
1750241241.6715326,2327
1750241241.6716113,2611
1750241241.6716905,2485
1750241241.671786,2116
1750241241.6824973,1709
1750241241.7075727,1361
1750241241.7079427,1048
1750241241.7082853,853
1750241241.7086437,1029
1750241241.7089746,1634
1750241241.7093964,2333
1750241241.7097363,2712
1750241241.7101004,2664
1750241241.7104392,2332
1750241241.7108521,1935
1750241241.7111807,1570
1750241241.71151,1213
1750241241.722212,920
1750241241.7667377,976
1750241241.7668757,1510
1750241241.7669866,2240
1750241241.7670922,2693
1750241241.767197,2699
1750241241.7673008,2383
1750241241.7674053,1994
1750241241.7675142,1643
1750241241.7676108,1306
1750241241.767706,996
1750241241.7682858,995
1750241241.7748644,1486
1750241241.7749596,2243
1750241241.7751074,2753
1750241241.7754412,2788
1750241241.7755244,2466
1750241241.7763164,2073
1750241241.7779872,1741
1750241241.7787104,1441
1750241241.7812908,1114
1750241241.7814746,1001
1750241241.7846985,1346
1750241241.7848086,2035
1750241241.7849126,2586
1750241241.7850158,2712
1750241241.7851415,2461
1750241241.785283,2085
1750241241.785387,1735
1750241241.7854903,1420
1750241241.7855926,1075
1750241241.785693,891
1750241241.785763,1138
1750241241.7858331,1783
1750241241.7859046,2389
1750241241.7859762,2617
1750241241.7860613,2446
1750241241.7870026,2085
1750241241.7873175,1724
1750241241.7873895,1430
1750241241.78746,1145
1750241241.787531,976
1750241241.787603,1162
1750241241.7876744,1724
1750241241.7877452,2310
1750241241.7878172,2577
1750241241.787889,2466
1750241241.7879603,2131
1750241241.7880318,1756
1750241241.7881021,1427
1750241241.788173,1121
1750241241.7882438,924
1750241241.7883148,1091
1750241241.7883859,1675
1750241241.788484,2336
1750241241.7885551,2666
1750241241.7886262,2568
1750241241.7886965,2203
1750241241.7887669,1807
1750241241.7888377,1488
1750241241.7889085,1206
1750241241.788979,979
1750241241.7890496,1058
1750241241.7891195,1571
1750241241.78919,2264
1750241241.7892609,2695
1750241241.7893307,2697
1750241241.789401,2372
1750241241.7894716,1960
1750241241.789542,1589
1750241241.7896128,1256
1750241241.7896826,965
1750241241.7897534,968
1750241241.7898242,1433
1750241241.7898948,2158
1750241241.7899652,2668
1750241241.7900352,2736
1750241241.7901053,2436
1750241241.7901757,2023
1750241241.7902465,1647
1750241241.7903166,1326
1750241241.7903872,1024
1750241241.7904603,962
1750241241.7905304,1347
1750241241.7906008,2055
1750241241.7906728,2618
1750241241.7907436,2753
1750241241.7908134,2492
1750241241.7908838,2084
1750241241.7909534,1703
1750241241.791024,1387
1750241241.7910938,1073
1750241241.7911656,933
1750241241.7912362,1214
1750241241.7913067,1880
1750241241.7913773,2509
1750241241.7914484,2764
1750241241.7915184,2613
1750241241.791589,2259
1750241241.7916632,1884
1750241241.7917426,1554
1750241241.7918139,1218
1750241241.7918854,1011
1750241241.7919564,1198
1750241241.7920282,1802
1750241241.7920985,2430
1750241241.7921698,2706
1750241241.7922404,2572
1750241241.7923112,2214
1750241241.7923837,1840
1750241241.7924583,1525
1750241241.792529,1216
1750241241.7926,995
1750241241.7926702,1137
1750241241.792741,1717
1750241241.7928119,2393
1750241241.7928824,2742
1750241241.7929528,2658
1750241241.7930236,2296
1750241241.7930942,1891
1750241241.7931645,1551
1750241241.814247,1247
1750241241.816613,1017
1750241241.8167527,1126
1750241241.816885,1681
1750241241.8170156,2380
1750241241.822107,2763
1750241241.822247,2698
1750241241.8224692,2340
1750241241.8225775,1954
1750241241.8226845,1672
1750241241.8227904,1428
1750241241.8229082,982
1750241241.823016,664
1750241241.8231225,1112
1750241241.823229,2238
1750241241.823348,3090
1750241241.8234544,2898
1750241241.8237505,1994
1750241241.8238707,1512
1750241241.8584106,1789
1750241241.8585057,1744
1750241241.8585896,399
1750241241.8586733,-1038
1750241241.8588505,-172
1750241241.885672,3247
1750241241.9031045,6009
1750241241.9034827,4799
1750241241.9038222,270
1750241241.904153,-3199
1750241241.9044847,-2418
1750241241.904817,937
1750241241.905177,2369
1750241241.9055073,133
1750241241.9058635,-2872
1750241241.906195,-2841
1750241241.9065356,454
1750241241.9068596,3942
1750241241.9071872,4962
1750241241.9156227,3758
1750241241.915735,2276
1750241241.9158394,1661
1750241241.9159431,1509
1750241241.9176333,1304
1750241241.9177125,1278
1750241241.917779,1753
1750241241.9178457,2363
1750241241.9179125,2534
1750241241.9179788,2157
1750241241.9180446,1739
1750241241.9181123,1638
1750241241.9599643,1707
1750241242.0173004,1743
1750241242.0618892,1754
1750241242.061966,1922
1750241242.0620358,2261
1750241242.062105,2502
1750241242.062171,2432
1750241242.0624044,2153
1750241242.0624738,1884
1750241242.062541,1763
1750241242.0626082,1740
1750241242.0626986,1670
1750241242.062759,1529
1750241242.0629427,1555
1750241242.063011,1880
1750241242.0654395,2320
1750241242.0676055,2541
1750241242.0676777,2467
1750241242.0677645,2220
1750241242.067835,1980
1750241242.0679016,1785
1750241242.0679684,1565
1750241242.0680346,1300
1750241242.0681002,1246
1750241242.0681655,1591
1750241242.0682802,2173
1750241242.0683537,2583
1750241242.0684302,2638
1750241242.0684984,2403
1750241242.0685644,2077
1750241242.0686283,1758
1750241242.068694,1452
1750241242.068759,1152
1750241242.0688238,1096
1750241242.0688894,1481
1750241242.0689912,2160
1750241242.069057,2674
1750241242.0691328,2774
1750241242.0693007,2519
1750241242.0967114,2146
1750241242.0968301,1804
1750241242.0969403,1515
1750241242.0970492,1218
1750241242.0993328,1082
1750241242.0994418,1331
1750241242.0995471,1923
1750241242.099651,2463
1750241242.099755,2663
1750241242.0998588,2506
1750241242.0999627,2163
1750241242.1000662,1784
1750241242.1001692,1443
1750241242.1005473,1128
1750241242.100651,991
1750241242.1007564,1260
1750241242.1008594,1902
1750241242.1018863,2515
1750241242.1049879,2755
1750241242.1093347,2599
1750241242.1215854,2237
1750241242.1355202,1855
1750241242.137247,1527
1750241242.1385586,1207
1750241242.1386447,989
1750241242.1387236,1136
1750241242.1387963,1707
1750241242.1388562,2362
1750241242.1389334,2703
1750241242.1390107,2630
1750241242.1390884,2291
1750241242.1391675,1898
1750241242.1392434,1552
1750241242.1393197,1231
1750241242.139396,978
1750241242.1394715,1050
1750241242.1395478,1554
1750241242.139625,2218
1750241242.1397018,2622
1750241242.1397781,2620
1750241242.1398537,2312
1750241242.1399345,1914
1750241242.1400104,1547
1750241242.140086,1220
1750241242.1401622,948
1750241242.140238,970
1750241242.1403143,1430
1750241242.1403913,2118
1750241242.1404722,2591
1750241242.1405485,2651
1750241242.140625,2368
1750241242.1407003,1970
1750241242.1407764,1595
1750241242.1408522,1271
1750241242.1409283,983
1750241242.1410043,955
1750241242.1410806,1377
1750241242.141157,2098
1750241242.141229,2648
