1750241541.3817356,2235
1750241541.5246434,1929
1750241541.5250077,1688
1750241541.5662272,1774
1750241541.5663414,2317
1750241541.5664477,3026
1750241541.5665534,3436
1750241541.5683012,3403
1750241541.57021,3057
1750241541.5703194,2649
1750241541.5704243,2294
1750241541.5705292,1973
1750241541.5706773,1677
1750241541.577243,1698
1750241541.5900135,2247
1750241541.590105,3073
1750241541.5906303,3604
1750241541.5925615,3599
1750241541.5926433,3213
1750241541.592721,2788
1750241541.5927973,2475
1750241541.5928736,2189
1750241541.5929499,1831
1750241541.5930252,1674
1750241541.5930922,2067
1750241541.5931678,2889
1750241541.5932438,3534
1750241541.5933194,3632
1750241541.5933957,3284
1750241541.5934715,2854
1750241541.5935473,2534
1750241541.5936234,2253
1750241541.5936973,1876
1750241541.5941453,1642
1750241541.5965407,1961
1750241541.596968,2789
1750241541.5970328,3510
1750241541.5971014,3662
1750241541.5980487,3328
1750241541.598623,2895
1750241541.6022754,2602
1750241541.603395,2357
1750241541.6044044,1975
1750241541.6046085,1630
1750241541.604809,1803
1750241541.6062586,2585
1750241541.6068864,3407
1750241541.60699,3688
1750241541.607089,3409
1750241541.607189,2942
1750241541.607363,2609
1750241541.607435,2384
1750241541.6075428,2060
1750241541.6076117,1704
1750241541.6076803,1777
1750241541.6077504,2472
1750241541.6088963,3321
1750241541.6089716,3682
1750241541.609042,3457
1750241541.6091104,2985
1750241541.6092086,2642
1750241541.6092777,2438
1750241541.6093454,2145
1750241541.6094172,1735
1750241541.609487,1661
1750241541.609557,2245
1750241541.6096263,3148
1750241541.6096945,3667
1750241541.6097653,3556
1750241541.6098351,3083
1750241541.6099038,2681
1750241541.609973,2454
1750241541.610041,2215
1750241541.6101086,1838
1750241541.6101792,1677
1750241541.6102471,2112
1750241541.6103156,2953
1750241541.6103828,3533
1750241541.6104515,3528
1750241541.6105187,3118
1750241541.6105871,2709
1750241541.6106553,2460
1750241541.6107242,2233
1750241541.610793,1869
1750241541.610861,1656
1750241541.6109293,2006
1750241541.610998,2832
1750241541.6110656,3489
1750241541.6111333,3560
1750241541.6112008,3177
1750241541.6112688,2749
1750241541.6113372,2490
1750241541.6114063,2277
1750241541.611475,1909
1750241541.6115437,1608
1750241541.6116111,1860
1750241541.611679,2704
1750241541.6117537,3502
1750241541.6118224,3689
1750241541.61189,3316
1750241541.6119585,2825
1750241541.6120255,2533
1750241541.612096,2357
1750241541.6121671,2034
1750241541.6122382,1661
1750241541.6123087,1753
1750241541.6123798,2500
1750241541.6124506,3376
1750241541.6125214,3727
1750241541.612593,3460
1750241541.6126633,2946
1750241541.6127336,2580
1750241541.6128047,2393
1750241541.6128752,2151
1750241541.6129453,1785
1750241541.613015,1670
1750241541.613075,2082
1750241541.6131456,2766
1750241541.613216,3192
1750241541.6132865,3171
1750241541.6133664,2829
1750241541.6134372,2427
1750241541.6135075,2098
1750241541.613578,1842
1750241541.6136475,1633
1750241541.6137145,1692
1750241541.6137867,2163
1750241541.6138582,2824
1750241541.6139312,3230
1750241541.615292,3230
1750241541.6154542,2920
1750241541.6155944,2506
1750241541.6156812,2129
1750241541.6157703,1850
1750241541.6158507,1640
1750241541.61593,1653
1750241541.61601,2038
1750241541.616089,2659
1750241541.6161673,3116
1750241541.6162434,3218
1750241541.6163206,2999
1750241541.616399,2618
1750241541.6164775,2214
1750241541.616554,1887
1750241541.6166308,1641
1750241541.6167073,1607
1750241541.616784,1961
1750241541.6168606,2610
1750241541.6169364,3150
1750241541.6170118,3326
1750241541.6170785,3150
1750241541.617139,2773
1750241541.6172175,2355
1750241541.6172917,2000
1750241541.61737,1713
1750241541.617446,1590
1750241541.6175256,1842
1750241541.6175997,2449
1750241541.6176755,3047
1750241541.6177511,3317
1750241541.6178272,3222
1750241541.6179028,2882
1750241541.6179783,2458
1750241541.6180537,2067
1750241541.6181297,1740
1750241541.6183305,1555
1750241541.618482,1742
1750241541.6186233,2327
1750241541.6204336,2974
1750241541.6293957,3300
1750241541.6294894,3243
1750241541.6295626,2923
1750241541.6296458,2523
1750241541.629883,2147
1750241541.6299655,1819
1750241541.6325018,1580
1750241541.6325889,1684
1750241541.6326704,2238
1750241541.6327534,2955
1750241541.6328356,3376
1750241541.6329167,3366
1750241541.633043,3045
1750241541.633113,2644
1750241541.6331787,2281
1750241541.633261,1966
1750241541.6333442,1680
1750241541.6334155,1656
1750241541.6334949,2090
1750241541.6335742,2793
1750241541.6336544,3287
1750241541.6337187,3356
1750241541.6337862,3076
1750241541.6338649,2676
1750241541.6339428,2305
1750241541.6340206,2003
1750241541.6340995,1734
1750241541.6341782,1676
1750241541.6342566,2040
1750241541.6343336,2713
1750241541.6344118,3247
1750241541.6344898,3390
1750241541.6345682,3175
1750241541.6346462,2784
1750241541.634724,2360
1750241541.6348019,1985
1750241541.6348805,1670
1750241541.6349628,1563
1750241541.6525486,1877
1750241541.6526322,2535
1750241541.652707,3112
1750241541.6547587,3319
1750241541.6548803,3169
1750241541.6550114,2812
1750241541.6571422,2398
1750241541.6572185,2023
1750241541.6572914,1712
1750241541.657364,1567
1750241541.6574361,1803
1750241541.657509,2403
1750241541.657581,3009
1750241541.6577828,3293
1750241541.657857,3224
1750241541.6579404,2907
1750241541.6621826,2493
1750241541.6638474,2095
1750241541.6639314,1768
1750241541.664013,1580
1750241541.664091,1741
1750241541.6641672,2283
1750241541.6642432,2911
1750241541.6643195,3258
1750241541.6643958,3254
1750241541.6644793,2970
1750241541.6645555,2558
1750241541.6649606,2137
1750241541.6650543,1790
1750241541.6651227,1570
1750241541.6651993,1679
1750241541.665276,2188
1750241541.665351,2845
1750241541.6654274,3248
1750241541.6655042,3290
1750241541.6659765,3041
1750241541.6660576,2660
1750241541.6661334,2250
1750241541.6662092,1885
1750241541.666286,1603
1750241541.6663618,1614
1750241541.6664443,2065
1750241541.6666358,2767
1750241541.667186,3273
1750241541.667957,3383
1750241541.6700535,3150
1750241541.6701717,2760
1750241541.6702833,2349
1750241541.6713006,1997
1750241541.6715472,1704
1750241541.6717296,1629
1750241541.6718426,1971
1750241541.672064,2636
1750241541.6722255,3198
1750241541.672416,3391
1750241541.6725903,3224
1750241541.67275,2853
1750241541.672914,2432
1750241541.6730585,2056
1750241541.673196,1744
1750241541.6733673,1625
1750241541.6735442,1920
1750241541.6738086,2581
1750241541.673958,3200
1750241541.6741188,3450
1750241541.674282,3322
1750241541.6743596,2967
1750241541.6744347,2550
1750241541.6745093,2175
1750241541.6745846,1849
1750241541.674697,1652
1750241541.6750495,1820
1750241541.6762486,2385
1750241541.6770644,3014
1750241541.6772366,3338
1750241541.6793618,3294
1750241541.6795263,2989
1750241541.679602,2587
1750241541.6796768,2196
1750241541.6797504,1854
1750241541.679825,1626
1750241541.679899,1763
1750241541.6799724,2349
1750241541.6800482,3078
1750241541.6801229,3492
1750241541.6802044,3464
1750241541.6802783,3118
1750241541.6803522,2692
1750241541.680426,2319
1750241541.6804998,2014
1750241541.680573,1749
1750241541.6806467,1736
1750241541.6807203,2157
1750241541.6807947,2843
1750241541.6808684,3343
1750241541.680942,3446
1750241541.6810167,3190
1750241541.6810794,2779
1750241541.6811476,2369
1750241541.681222,2033
1750241541.681296,1754
1750241541.6813707,1707
1750241541.6814492,2082
1750241541.68153,2758
1750241541.681604,3297
1750241541.6816773,3443
1750241541.6817958,3225
1750241541.6818697,2826
1750241541.681942,2408
1750241541.6820073,2060
1750241541.6820972,1764
1750241541.6821837,1660
1750241541.6822507,1969
1750241541.6823199,2636
1750241541.6823857,3238
1750241541.6824477,3452
1750241541.6825166,3275
1750241541.682586,2886
1750241541.6826518,2474
1750241541.6827219,2131
1750241541.6827838,1826
1750241541.6828487,1645
1750241541.6829176,1852
1750241541.6829877,2481
1750241541.6830595,3149
1750241541.6831317,3454
1750241541.683203,3329
1750241541.6832743,2942
1750241541.6863809,2521
1750241541.6868892,2176
1750241541.7124867,1875
1750241541.732516,1652
1750241541.745328,1776
1750241541.7454553,2355
1750241541.7455986,3073
1750241541.7466779,3469
1750241541.7468793,3417
1750241541.7470307,3053
1750241541.7510662,2627
1750241541.7511876,2269
1750241541.7512968,1965
1750241541.7514148,1704
1750241541.7515204,1737
1750241541.7516255,2232
1750241541.7520146,2951
1750241541.752119,3415
1750241541.7522244,3437
1750241541.752329,3122
1750241541.7524345,2714
1750241541.7525399,2347
1750241541.752645,2030
1750241541.7527492,1733
1750241541.7528546,1697
1750241541.7529712,2144
1750241541.7530763,2902
1750241541.753181,3449
1750241541.753286,3524
1750241541.7533913,3216
1750241541.7534964,2801
1750241541.753601,2442
1750241541.753706,2139
1750241541.753811,1819
1750241541.7549691,1680
1750241541.7628884,2013
1750241541.7632124,2748
1750241541.7632976,3376
1750241541.7633796,3545
1750241541.7634609,3286
1750241541.7635639,2863
1750241541.7636454,2485
1750241541.7637265,2185
1750241541.7638073,1881
1750241541.7638876,1694
1750241541.7639832,1923
1750241541.7641006,2574
1750241541.7722616,3212
1750241541.7732482,3456
1750241541.7736042,3292
1750241541.7738056,2917
1750241541.7738805,2527
1750241541.7739544,2181
1750241541.7740273,1853
1750241541.7741005,1647
1750241541.7741733,1852
1750241541.7742457,2497
1750241541.774319,3172
1750241541.7743914,3453
1750241541.7744634,3314
1750241541.774542,2950
1750241541.7746184,2573
1750241541.7746913,2234
1750241541.774764,1896
1750241541.7748368,1623
1750241541.7749145,1729
1750241541.7749887,2327
1750241541.77508,3070
1750241541.7751532,3458
1750241541.7764895,3386
1750241541.781899,3035
1750241541.7819788,2661
1750241541.782054,2337
1750241541.782128,2001
1750241541.7822013,1665
1750241541.782301,1669
1750241541.7823746,2242
1750241541.782459,3097
1750241541.7825317,3621
1750241541.7826054,3585
1750241541.7826765,3187
1750241541.7827492,2789
1750241541.7828224,2509
1750241541.7828946,2219
1750241541.7829673,1817
1750241541.7830403,1632
1750241541.7831113,2056
1750241541.7831843,2948
1750241541.7832568,3631
1750241541.78333,3701
1750241541.783403,3300
1750241541.7834756,2858
1750241541.783547,2587
1750241541.7865188,2360
1750241541.7865953,1968
1750241541.7867577,1653
1750241541.7869294,1896
1750241541.812954,2717
1750241541.8156743,3490
1750241541.816677,3689
1750241541.8171642,3353
1750241541.8172855,2889
1750241541.8174024,2582
1750241541.8175168,2361
1750241541.8176322,2006
1750241541.818611,1663
1750241541.8187263,1816
1750241541.8188407,2583
1750241541.8189542,3403
1750241541.8190684,3673
1750241541.819182,3368
1750241541.8192954,2881
1750241541.81941,2563
1750241541.8229249,2376
1750241541.8230433,2071
1750241541.8231614,1690
1750241541.8232977,1721
1750241541.823413,2400
1750241541.823529,3269
1750241541.8236623,3655
1750241541.8237906,3428
1750241541.8239045,2946
1750241541.824134,2611
1750241541.824273,2430
1750241541.8258784,2144
1750241541.827683,1721
1750241541.8277793,1659
1750241541.827854,2306
1750241541.827927,3283
1750241541.8280005,3808
1750241541.8280714,3625
1750241541.8290315,3089
1750241541.8291078,2711
1750241541.8291857,2565
1750241541.8292592,2348
1750241541.8293328,1887
1750241541.8294058,1634
1750241541.8294792,2092
1750241541.830104,3063
1750241541.830171,3739
1750241541.8302324,3690
1750241541.8303084,3168
1750241541.8303826,2724
1750241541.830456,2545
1750241541.830529,2387
1750241541.8306026,1989
1750241541.8306744,1663
1750241541.8307476,1946
1750241541.8308241,2815
1750241541.8308969,3569
1750241541.8309696,3689
1750241541.8310425,3275
1750241541.8311138,2788
1750241541.8311868,2510
1750241541.8312588,2351
1750241541.8313315,2062
1750241541.8314042,1753
1750241541.831477,1839
1750241541.8315496,2425
1750241541.8316278,3059
1750241541.8317323,3293
1750241541.8318079,3094
1750241541.831881,2697
1750241541.831954,2335
1750241541.832026,2068
1750241541.8320982,1821
1750241541.832171,1653
1750241541.8408322,1844
1750241541.8409126,2446
1750241541.8409877,3075
1750241541.841052,3323
1750241541.8411202,3160
1750241541.8411918,2774
1750241541.8412626,2386
1750241541.8413339,2082
1750241541.841406,1822
1750241541.841477,1626
1750241541.8415473,1752
1750241541.841618,2302
1750241541.8416815,2971
1750241541.8417664,3315
1750241541.8418384,3241
1750241541.8419096,2896
1750241541.8419814,2511
1750241541.842053,2178
1750241541.8421237,1878
1750241541.8421943,1608
1750241541.8422654,1635
1750241541.8423364,2138
1750241541.8424072,2879
1750241541.8424778,3351
1750241541.842548,3361
1750241541.8426187,3029
1750241541.8426895,2622
1750241541.8427596,2275
1750241541.8428304,1982
1750241541.8429012,1682
1750241541.8429713,1594
1750241541.8430426,1966
1750241541.8431134,2678
1750241541.8431842,3236
1750241541.8432546,3363
1750241541.843325,3104
1750241541.8434033,2702
1750241541.8434734,2329
1750241541.843544,2021
1750241541.843615,1720
1750241541.843686,1593
1750241541.8437562,1914
1750241541.8438272,2621
1750241541.8438976,3236
1750241541.8439677,3412
1750241541.8440382,3176
1750241541.8441088,2768
1750241541.844179,2386
1750241541.8442492,2081
1750241541.8443196,1792
1750241541.8443902,1633
1750241541.8444605,1895
1750241541.8445306,2582
1750241541.8446012,3252
1750241541.8446717,3502
1750241541.844742,3321
1750241541.8541903,2924
1750241541.914698,2524
1750241541.9994223,2178
1750241542.0588546,1833
1750241542.084909,1567
1750241542.085021,1690
1750241542.0851026,2284
1750241542.085185,2979
1750241542.0852673,3323
1750241542.0857549,3235
1750241542.0858617,2884
1750241542.0859451,2495
1750241542.0860279,2150
1750241542.0861104,1828
1750241542.086193,1562
1750241542.0867295,1646
1750241542.086812,2220
1750241542.0868936,2977
1750241542.0869744,3407
1750241542.0870564,3366
1750241542.0871875,3008
1750241542.087266,2606
1750241542.0873442,2270
1750241542.087422,1964
1750241542.0874999,1653
1750241542.0875773,1604
1750241542.0876548,2054
1750241542.0877328,2810
1750241542.0878105,3339
1750241542.0878882,3394
1750241542.0879657,3080
1750241542.0880432,2678
1750241542.0881205,2336
1750241542.088198,2037
1750241542.0882754,1717
1750241542.0883534,1600
1750241542.0884461,1968
1750241542.0885243,2711
1750241542.0886018,3305
1750241542.0886798,3433
1750241542.0887573,3169
1750241542.0888348,2779
1750241542.0889127,2430
1750241542.0889897,2127
1750241542.0890548,1794
1750241542.0891268,1606
1750241542.0892053,1877
1750241542.0892828,2575
1750241542.0893602,3211
1750241542.0894377,3402
1750241542.0895147,3180
1750241542.089592,2798
1750241542.0896628,2456
1750241542.0897274,2166
1750241542.0898051,1850
1750241542.0898824,1627
1750241542.0899596,1838
1750241542.0900373,2536
1750241542.090114,3269
1750241542.090192,3563
1750241542.0902693,3377
1750241542.0903466,2956
1750241542.0904233,2562
1750241542.0905006,2253
1750241542.0905778,1942
1750241542.090655,1659
1750241542.0907323,1727
1750241542.090809,2288
1750241542.0908864,3005
1750241542.0909636,3386
1750241542.0910404,3317
1750241542.091125,2968
1750241542.091202,2588
1750241542.09128,2261
1750241542.091357,1948
1750241542.0914345,1654
1750241542.0915112,1672
1750241542.0915895,2181
1750241542.0916662,2915
1750241542.0983846,3363
1750241542.0984595,3354
1750241542.098531,3032
1750241542.0985987,2650
1750241542.098668,2317
1750241542.0987365,2012
1750241542.0988054,1702
1750241542.0988739,1643
1750241542.0989506,2075
1750241542.0990174,2831
1750241542.099085,3381
1750241542.0991542,3457
1750241542.0992236,3148
1750241542.0992928,2729
1750241542.099361,2375
1750241542.0994303,2094
1750241542.099499,1797
1750241542.0995717,1647
1750241542.09964,1927
1750241542.0997078,2597
1750241542.099777,3191
1750241542.0998464,3372
1750241542.0999265,3154
1750241542.1000092,2765
1750241542.1000876,2399
1750241542.1001654,2103
1750241542.100244,1801
1750241542.1003218,1621
1750241542.1003997,1873
1750241542.1004782,2574
1750241542.1005566,3265
1750241542.1006343,3516
1750241542.1007118,3306
1750241542.1007898,2886
1750241542.1008687,2505
1750241542.1009476,2217
1750241542.1010187,1922
1750241542.1010902,1669
1750241542.1011686,1786
1750241542.1012468,2394
1750241542.1013246,3119
1750241542.1014023,3474
1750241542.1014802,3358
1750241542.101558,2967
1750241542.1016362,2570
1750241542.1017067,2266
1750241542.1017797,1986
1750241542.1018581,1718
1750241542.1019359,1746
1750241542.1020136,2241
1750241542.1020916,2938
1750241542.1021695,3357
1750241542.1022477,3338
1750241542.1023254,3009
1750241542.1024032,2612
1750241542.1024806,2266
1750241542.1025581,1963
1750241542.102636,1686
1750241542.1027136,1689
1750241542.1027908,2170
1750241542.1028779,2915
1750241542.102956,3410
1750241542.1030335,3435
1750241542.1031141,3104
1750241542.103194,2690
1750241542.103272,2343
1750241542.1033492,2061
1750241542.103427,1776
1750241542.1035042,1689
1750241542.1035814,2057
1750241542.1036572,2775
1750241542.1037347,3348
1750241542.1038127,3477
1750241542.1038904,3216
1750241542.1039686,2813
1750241542.104046,2443
1750241542.1041238,2138
1750241542.1042016,1831
1750241542.1042795,1677
1750241542.1043584,1958
1750241542.1044362,2637
1750241542.1045144,3250
1750241542.1045928,3442
1750241542.1046712,3235
1750241542.1047497,2854
1750241542.1048322,2487
1750241542.1049101,2176
1750241542.1049883,1857
1750241542.1655803,1641
1750241542.1786864,1844
1750241542.1788378,2504
1750241542.1992881,3195
1750241542.21596,3476
1750241542.226662,3306
1750241542.2720659,2907
1750241542.2909045,2525
1750241542.3466516,2227
1750241542.346751,1937
1750241542.3468406,1685
1750241542.34701,1779
1750241542.3472269,2354
1750241542.347387,3072
1750241542.3474774,3448
1750241542.3475657,3364
1750241542.3476536,2994
1750241542.3477418,2604
1750241542.348167,2291
1750241542.348289,2006
1750241542.3483925,1734
1750241542.3492475,1757
1750241542.3493464,2259
1750241542.3494358,2986
1750241542.3495235,3429
1750241542.3496413,3413
1750241542.349731,3075
1750241542.3498192,2682
1750241542.3499067,2351
1750241542.349995,2061
1750241542.350117,1768
1750241542.3502054,1712
1750241542.3502924,2121
1750241542.35061,2833
1750241542.3507488,3347
1750241542.3508842,3421
1750241542.3510218,3139
1750241542.351159,2744
1750241542.3512962,2383
1750241542.3514328,2079
1750241542.3515697,1784
1750241542.3517213,1683
1750241542.3518615,2025
1750241542.3519995,2723
1750241542.3521373,3297
1750241542.3523111,3443
1750241542.358575,3203
1750241542.3586676,2810
1750241542.3587537,2444
1750241542.3588383,2148
1750241542.3589256,1854
1750241542.3590646,1682
1750241542.3591526,1917
1750241542.3592386,2569
1750241542.3607583,3209
1750241542.360926,3449
1750241542.3612332,3267
1750241542.361383,2874
1750241542.3615856,2490
1750241542.3617883,2180
1750241542.361966,1880
1750241542.362128,1661
1750241542.362309,1834
1750241542.3625462,2486
1750241542.3627138,3219
1750241542.362908,3552
1750241542.363015,3400
1750241542.3631577,2985
1750241542.3633013,2587
1750241542.3634446,2293
1750241542.3636281,2009
1750241542.3637712,1721
1750241542.3639076,1743
1750241542.364066,2269
1750241542.3642101,3013
1750241542.364343,3451
1750241542.3644896,3406
1750241542.364634,3032
1750241542.3647776,2622
1750241542.3740919,2304
1750241542.374229,2023
1750241542.3743393,1727
1750241542.3744614,1686
1750241542.3745706,2141
1750241542.3746793,2895
1750241542.3747876,3415
1750241542.3749082,3452
1750241542.3750165,3115
1750241542.3751357,2696
1750241542.3752444,2358
1750241542.375363,2085
1750241542.3754587,1791
1750241542.3755379,1681
1750241542.3756158,2028
1750241542.3756938,2732
1750241542.3757849,3294
1750241542.3758633,3410
1750241542.375941,3137
1750241542.376019,2738
1750241542.3760965,2392
1750241542.3761735,2112
1750241542.3762677,1811
1750241542.376346,1658
1750241542.3764246,1961
1750241542.3765025,2690
1750241542.3765807,3350
1750241542.3766723,3546
1750241542.3767498,3295
1750241542.376828,2872
1750241542.376906,2510
1750241542.376985,2234
1750241542.3771694,1925
1750241542.377253,1682
1750241542.3773353,1854
1750241542.3774164,2524
1750241542.3774989,3250
1750241542.3775933,3550
1750241542.3777702,3366
1750241542.3778517,2952
1750241542.3779325,2585
1750241542.3780272,2309
1750241542.3781087,1991
1750241542.3781896,1681
1750241542.3782704,1766
1750241542.378352,2415
1750241542.4346778,3225
1750241542.4352694,3612
1750241542.4353642,3452
1750241542.4354553,3017
1750241542.4355469,2650
1750241542.4433098,2394
1750241542.4433916,2082
1750241542.443468,1695
1750241542.4435449,1650
1750241542.449208,2243
1750241542.4492874,3147
1750241542.4493632,3678
1750241542.4494376,3586
1750241542.4606225,3127
1750241542.46071,2724
1750241542.4607856,2491
1750241542.4608595,2248
1750241542.4609332,1851
1750241542.4610045,1637
1750241542.4920862,2003
1750241542.5634205,2815
1750241542.5774987,3437
1750241542.5775864,3507
1750241542.5776591,3145
1750241542.5777206,2719
1750241542.5778022,2421
1750241542.5778828,2183
1750241542.5779634,1857
1750241542.5780437,1659
1750241542.5781243,1950
1750241542.5781999,2683
1750241542.5782754,3311
1750241542.5783505,3445
1750241542.5784378,3145
1750241542.5785131,2724
1750241542.5785885,2398
1750241542.578666,2161
1750241542.578741,1870
1750241542.5788155,1655
1750241542.5788908,1866
1750241542.5789652,2544
1750241542.57904,3218
1750241542.5791152,3447
1750241542.57919,3218
1750241542.5792649,2805
1750241542.5793395,2448
1750241542.579415,2148
1750241542.5794904,1790
1750241542.5795648,1506
1750241542.5796402,1672
1750241542.5797148,2369
1750241542.5797896,3133
1750241542.5798645,3444
1750241542.5799391,3288
1750241542.5800152,2954
1750241542.5800893,2691
1750241542.5801644,2466
1750241542.5802395,2103
1750241542.580315,1682
1750241542.5803902,1713
1750241542.580465,2339
1750241542.58054,2780
1750241542.5806196,2050
1750241542.5806944,271
1750241542.58077,-1253
1750241542.5808456,-1276
1750241542.580921,-42
1750241542.5809972,1053
1750241542.5810578,1258
1750241542.581134,1680
1750241542.5812092,3741
1750241542.581284,6845
1750241542.5813587,8382
1750241542.60732,6710
1750241542.6505284,3151
1750241542.6999905,762
1750241542.7000704,1055
1750241542.700145,2552
1750241542.7002182,2845
1750241542.7002914,1636
1750241542.7003646,771
1750241542.709058,1647
1750241542.7091734,3484
1750241542.7092807,4588
1750241542.7093878,4217
1750241542.7094924,2997
1750241542.709598,1816
1750241542.7097018,914
1750241542.709806,197
1750241542.7196686,65
1750241542.719782,1075
1750241542.7198882,2994
1750241542.719993,4791
1750241542.7200978,5786
1750241542.748872,6174
1750241542.8404343,6425
1750241542.8405228,6573
1750241542.8465943,6295
1750241542.8466785,5507
1750241542.8467548,4647
1750241542.8468313,4255
1750241542.8530405,4287
1750241542.8789048,4241
1750241542.8811126,3999
1750241542.8815248,4004
1750241542.8817968,4557
1750241542.91294,5370
1750241542.9134498,5780
1750241542.9585614,5399
1750241543.0154788,4573
1750241543.0160239,4050
1750241543.0164094,4118
1750241543.016843,4407
1750241543.0172195,4514
1750241543.0176013,4575
1750241543.0179782,4799
1750241543.0244608,5097
1750241543.024595,5085
1750241543.0247095,4545
1750241543.024824,3763
1750241543.024981,3414
1750241543.0266185,3789
1750241543.02673,4473
1750241543.0268574,4847
1750241543.0269911,4847
1750241543.0271304,4715
1750241543.0272443,4608
1750241543.028256,4405
1750241543.1000946,3961
1750241543.1257613,3396
1750241543.1941912,3191
1750241543.194287,3630
1750241543.1943605,4400
1750241543.1944358,4873
1750241543.1945276,4874
1750241543.1946013,4611
1750241543.194675,4329
1750241543.1947482,4048
1750241543.1948216,3673
1750241543.194895,3208
1750241543.1949995,2993
1750241543.195084,3349
1750241543.1951578,4101
1750241543.195231,4661
1750241543.1953044,4734
1750241543.1954134,4456
1750241543.1954868,4105
1750241543.1955602,3798
1750241543.1956332,3483
1750241543.1957054,3088
1750241543.195778,2837
1750241543.195878,3091
1750241543.1959517,3813
1750241543.1960437,4468
1750241543.1961162,4642
1750241543.19619,4386
1750241543.1962998,3980
1750241543.1963744,3640
1750241543.196439,3356
1750241543.1965108,3008
1750241543.1965747,2701
1750241543.1966414,2808
1750241543.1988266,3427
1750241543.2005117,4134
1750241543.200993,4438
1750241543.2011316,4279
1750241543.2012682,3881
1750241543.2013898,3501
1750241543.2015111,3198
1750241543.201985,2879
1750241543.20382,2571
1750241543.2039285,2605
1750241543.2040124,3147
1750241543.2040899,3873
1750241543.2042325,4264
1750241543.204316,4177
1750241543.2044024,3782
1750241543.2044861,3365
1750241543.2045648,3040
1750241543.204643,2747
1750241543.204738,2441
1750241543.2048166,2389
1750241543.2048945,2812
1750241543.2049665,3508
1750241543.205083,3971
1750241543.2054622,3984
1750241543.205573,3644
1750241543.2056599,3222
1750241543.20574,2867
1750241543.205829,2572
1750241543.2059114,2276
1750241543.2121859,2202
1750241543.2123067,2597
1750241543.2124183,3320
1750241543.2125995,3848
1750241543.2127078,3898
1750241543.2128153,3562
1750241543.2129216,3134
1750241543.2130275,2792
1750241543.2131329,2527
1750241543.2132387,2230
1750241543.2133522,2075
1750241543.2134578,2377
1750241543.213564,3103
1750241543.2136767,3746
1750241543.2137823,3911
1750241543.2138872,3620
1750241543.2139926,3168
1750241543.2140975,2797
1750241543.2142031,2533
1750241543.214896,2236
1750241543.2695687,1995
1750241543.384646,2154
1750241543.406828,2798
1750241543.406944,3491
1750241543.4070868,3761
1750241543.407195,3541
1750241543.4074833,3085
1750241543.407616,2691
1750241543.4077227,2432
1750241543.407829,2179
1750241543.433044,1946
1750241543.4518912,2074
1750241543.452582,2725
1750241543.4533153,3520
1750241543.453485,3909
1750241543.4535701,3747
1750241543.4536457,3268
1750241543.4537275,2821
1750241543.4538047,2521
1750241543.453887,2235
1750241543.4539685,1896
1750241543.4540498,1833
1750241543.4541326,2309
1750241543.4542112,3076
1750241543.4675028,3563
1750241543.467734,3530
1750241543.4678457,3136
1750241543.4679604,2726
1750241543.4684062,2444
1750241543.4684927,2198
1750241543.4685733,1885
1750241543.4686637,1784
1750241543.468739,2199
1750241543.4700475,2972
1750241543.4701421,3527
1750241543.4931931,3554
1750241543.4933107,3168
1750241543.4934168,2717
1750241543.4935224,2392
1750241543.4936962,2141
1750241543.4938018,1808
1750241543.4939065,1591
1750241543.4940112,1835
1750241543.4941154,2517
1750241543.498825,3133
1750241543.498942,3306
1750241543.4990625,3048
1750241543.499235,2635
1750241543.499342,2289
1750241543.4994483,2029
1750241543.4995534,1729
1750241543.4996593,1525
1750241543.499764,1753
1750241543.4998693,2438
1750241543.4999745,3099
1750241543.50008,3306
1750241543.5001845,3052
1750241543.5002892,2625
1750241543.5003939,2278
1750241543.500499,2027
1750241543.5006032,1722
1750241543.5007236,1444
1750241543.5008287,1584
1750241543.5009332,2266
1750241543.5013142,3032
1750241543.5014198,3398
1750241543.5015247,3310
1750241543.5020542,2957
1750241543.5021615,2520
1750241543.5027468,2085
1750241543.5028512,1704
1750241543.5029552,1494
1750241543.5030591,1608
1750241543.5035222,1988
1750241543.50438,2444
1750241543.5044854,2865
1750241543.5138566,3181
1750241543.5139759,3046
1750241543.5140843,2265
1750241543.514191,1392
1750241543.514347,1536
1750241543.5144618,3110
1750241543.5145671,5157
1750241543.514673,5977
1750241543.5488462,4832
1750241543.548964,2704
1750241543.5490358,1291
1750241543.549112,1090
1750241543.5491946,1163
1750241543.5492797,527
1750241543.5493634,-565
1750241543.5494485,-1092
1750241543.5495324,-374
1750241543.549616,1180
1750241543.5514858,2576
1750241543.5543134,3086
1750241543.5543976,2754
1750241543.5544784,1926
1750241543.554558,909
1750241543.5546381,-49
1750241543.554718,-621
1750241543.5547976,-596
1750241543.5548773,44
1750241543.5549564,1048
1750241543.5550466,1975
1750241543.5551271,2330
1750241543.555242,2013
1750241543.555352,1310
1750241543.5554612,618
1750241543.5558133,182
1750241543.555949,53
1750241543.5560932,97
1750241543.556249,296
1750241543.5563462,728
1750241543.557295,1293
1750241543.5573769,1650
1750241543.5574572,1617
1750241543.5575378,1305
1750241543.5576174,921
1750241543.557715,610
1750241543.557823,417
1750241543.557928,278
1750241543.5580332,228
1750241543.5581396,447
1750241543.5582447,943
1750241543.55835,1415
1750241543.5584843,1588
1750241543.5590785,1456
1750241543.5591872,1134
1750241543.5592933,761
1750241543.5593982,443
1750241543.5595028,207
1750241543.5596077,94
1750241543.559725,276
1750241543.5598297,768
1750241543.559935,1309
1750241543.5600393,1601
1750241543.560144,1618
1750241543.5602486,1426
1750241543.560353,1124
1750241543.5604575,805
1750241543.5612016,519
1750241543.561313,312
1750241543.5614188,381
1750241543.5615237,840
1750241543.561644,1449
1750241543.56176,1813
1750241543.561866,1825
1750241543.5619698,1587
1750241543.562074,1237
1750241543.5621784,793
1750241543.5622828,167
1750241543.562387,-609
1750241543.5624924,-1019
1750241543.5625966,-396
1750241543.562701,1324
1750241543.5628054,3435
1750241543.5629096,5146
1750241543.5630145,6074
1750241543.5631187,6323
1750241543.5632226,6159
1750241543.5633273,5673
1750241543.5634317,4764
1750241543.5712614,3666
1750241543.5719695,2962
1750241543.5724072,2955
1750241543.5733736,3348
1750241543.5734909,3743
1750241543.573597,4033
1750241543.5738373,4332
1750241543.5739136,4678
1750241543.5739882,4835
1750241543.5740619,4442
1750241543.574135,3607
1750241543.5742083,2994
1750241543.5742815,3074
1750241543.5743551,3614
1750241543.5744283,4077
1750241543.5745013,4236
1750241543.5745742,4186
1750241543.574647,4119
1750241543.5747201,3992
1750241543.5747936,3602
1750241543.602653,2981
1750241543.6118236,2646
1750241543.6119354,2985
1750241543.6120412,3738
1750241543.6121464,4280
1750241543.6122525,4328
1750241543.6147697,4019
1750241543.6148772,3690
1750241543.614982,3443
1750241543.6150992,3132
1750241543.6152043,2669
1750241543.6153092,2413
1750241543.615414,2730
1750241543.6155179,3459
1750241543.6156228,4015
1750241543.6157274,4082
1750241543.6158316,3750
1750241543.6159358,3352
1750241543.61604,3056
1750241543.616144,2789
1750241543.6162481,2421
1750241543.6163414,2199
1750241543.6164176,2467
1750241543.6164942,3158
1750241543.6165698,3746
1750241543.616646,3882
1750241543.616729,3597
1750241543.616805,3189
1750241543.6168804,2870
1750241543.6169558,2636
1750241543.617154,2343
1750241543.6172338,2137
1750241543.617314,2342
1750241543.6173925,2975
1750241543.6174717,3578
1750241543.6175504,3778
1750241543.6177554,3558
1750241543.6178384,3164
1750241543.6179178,2819
1750241543.617996,2560
1750241543.6180751,2265
1750241543.6181538,2032
1750241543.6182325,2191
1750241543.618312,2813
1750241543.618402,3467
1750241543.618481,3708
1750241543.6185591,3486
1750241543.6186368,3054
1750241543.6187265,2689
1750241543.6188042,2483
1750241543.6188824,2207
1750241543.618961,1693
1750241543.6190393,1462
1750241543.619118,2069
1750241543.6315234,3156
1750241543.6316137,3718
1750241543.6317046,3246
1750241543.6701086,2379
1750241543.6950188,2173
1750241543.6954334,2617
1750241543.7766058,2554
1750241543.7796042,1450
1750241543.7924757,716
1750241543.7928436,1956
1750241543.7941084,4235
1750241543.794222,4320
1750241543.794329,497
1750241543.794435,-4814
1750241543.794541,-7112
1750241543.794647,-4786
1750241543.794752,-917
1750241543.794857,305
1750241543.7949617,-1540
1750241543.815322,-3122
1750241543.817059,-1704
1750241543.8710465,1679
1750241543.9036908,3936
1750241543.9324617,3469
1750241543.9325647,1466
1750241543.9326427,-105
1750241543.93272,-556
1750241543.932797,-481
1750241543.932873,-215
1750241543.932949,472
1750241543.9330232,1527
1750241543.9330988,2185
1750241543.9331748,1838
1750241543.9332552,737
1750241543.933331,-197
1750241543.9334068,-453
1750241543.9334824,-168
1750241543.9335587,252
1750241543.933633,615
1750241543.933697,966
1750241543.9337728,1270
1750241543.9338484,1273
1750241543.9339242,908
1750241543.9339998,418
1750241543.934076,141
1750241543.934152,201
1750241543.9342277,430
1750241543.9343035,501
1750241543.9343796,380
1750241543.9347076,366
1750241543.9364932,627
1750241543.9366093,923
1750241543.9367418,979
1750241543.9368536,801
1750241543.9369643,583
1750241543.9370763,479
1750241543.9372106,455
1750241543.9373214,325
1750241543.9374313,84
1750241543.9375417,46
1750241543.9376647,398
1750241543.937775,892
1750241543.937885,1146
1750241543.9379952,1069
1750241543.9381177,814
1750241543.9382272,588
1750241543.9383245,440
1750241543.9384713,256
1750241543.9392548,3
1750241543.9393837,-38
1750241543.9394965,339
1750241543.9396071,925
1750241543.9397175,1285
1750241543.9398422,1265
1750241543.9399529,990
1750241543.940063,705
1750241543.940176,506
1750241543.943237,318
1750241543.9433336,64
1750241543.943419,-17
1750241543.9435034,316
1750241543.9435868,929
1750241543.9436707,1377
1750241543.9437606,1435
1750241543.9438453,1185
1750241543.943928,876
1750241543.944011,645
1750241543.9440942,457
1750241543.9441774,206
1750241543.9442675,72
1750241543.944351,324
1750241543.944434,915
1750241543.944528,1423
1750241543.944617,1563
1750241543.9447002,1361
1750241543.9447834,1045
1750241543.9448664,779
1750241543.9449499,575
1750241543.9450567,325
1750241543.94514,154
1750241543.945224,340
1750241543.9453068,907
1750241543.9453897,1463
1750241543.9491038,1671
1750241543.960481,1519
1750241543.960837,1211
1750241543.966411,936
1750241543.9667485,725
1750241543.9668593,471
1750241543.9692206,244
1750241543.9693036,344
1750241543.9693847,862
1750241543.9702566,1459
1750241543.99516,1739
1750241543.9952402,1637
1750241543.9953103,1333
1750241543.9953814,1044
1750241543.9954495,831
1750241543.995519,595
1750241543.9955895,346
1750241543.9956605,377
1750241543.9957304,840
1750241543.9958,1461
1750241543.99587,1808
1750241543.9959407,1760
1750241543.9960086,1471
1750241543.996081,1181
1750241543.9961512,969
1750241543.9962215,745
1750241543.9962912,471
1750241543.996364,427
1750241543.9964352,834
1750241543.9965036,1492
1750241543.99657,1927
1750241543.9966402,1940
1750241543.9967096,1659
1750241543.99678,1353
1750241543.9968505,1133
1750241543.9969175,920
1750241543.9969783,624
1750241543.9970388,498
1750241543.9970996,829
1750241543.9971602,1504
1750241543.9972208,2024
1750241543.9972816,2102
1750241543.997388,1830
1750241543.9974494,1504
1750241543.9975176,1280
1750241543.99758,1095
1750241543.9978073,803
1750241543.9978685,586
1750241543.9979284,782
1750241543.997989,1393
1750241543.9980493,1960
1750241543.998111,2129
1750241543.998171,1915
1750241543.9982364,1583
1750241543.9983068,1330
1750241543.9983852,1151
1750241543.998456,896
1750241543.9985268,667
1750241543.9985943,791
1750241543.9986641,1343
1750241543.9987319,1937
1750241543.9988012,2179
1750241543.9988685,2028
1750241543.9989378,1699
1750241543.9990077,1416
1750241543.9990754,1219
1750241543.999145,980
1750241543.9992132,733
1750241543.9992828,786
1750241543.9993503,1277
1750241543.9994202,1892
1750241543.9994884,2202
1750241543.9995584,2108
1750241543.9996254,1788
1750241543.9996953,1488
1750241543.999762,1282
1750241543.9998312,1058
1750241543.9998996,791
1750241543.9999688,779
1750241544.0000472,1221
1750241544.0001135,1876
1750241544.0001829,2272
1750241544.0002522,2239
1750241544.0003197,1927
1750241544.0003893,1613
1750241544.0004528,1403
1750241544.0005162,1199
1750241544.0005858,911
1750241544.0006528,798
1750241544.000722,1127
1750241544.0007894,1765
1750241544.0008588,2242
1750241544.000924,2307
1750241544.0009863,2041
1750241544.0010474,1715
1750241544.0011077,1473
1750241544.0011678,1272
1750241544.001228,1000
1750241544.0524414,852
1750241544.089293,1109
1750241544.098748,1720
1750241544.113233,2238
1750241544.1141863,2367
1750241544.1142972,2143
1750241544.1144032,1815
1750241544.1202552,1549
1750241544.1911418,1346
1750241544.1912606,1085
1750241544.191347,896
1750241544.1914315,1075
1750241544.1915166,1644
1750241544.1916015,2202
1750241544.1916862,2404
1750241544.1917841,2236
1750241544.1918678,1909
1750241544.1985204,1619
1750241544.1986167,1405
1750241544.1986852,1157
1750241544.198754,940
1750241544.1988218,1043
1750241544.1988933,1553
1750241544.1989741,2136
1750241544.199054,2412
1750241544.1991334,2312
1750241544.1992128,2004
1750241544.1992924,1696
1750241544.1993718,1460
1750241544.1994514,1217
1750241544.1995308,986
1750241544.1996098,1047
1750241544.1996891,1533
1750241544.199768,2163
1750241544.1998472,2513
1750241544.1999273,2464
1750241544.2000067,2161
1750241544.2000854,1843
1750241544.200165,1604
1750241544.2002442,1374
1750241544.2003233,1105
1750241544.2004025,1051
1750241544.20049,1414
1750241544.200573,2017
1750241544.2006521,2433
1750241544.2007308,2473
1750241544.2008095,2222
1750241544.200889,1910
1750241544.2009678,1657
1750241544.201034,1434
1750241544.2011056,1168
1750241544.2011843,1073
1750241544.2012634,1386
1750241544.2013419,1998
1750241544.2014208,2474
1750241544.2014997,2568
1750241544.2015784,2334
1750241544.2016485,2008
1750241544.201724,1739
1750241544.2018037,1523
1750241544.201883,1256
1750241544.2019622,1102
1750241544.2020416,1334
1750241544.2021203,1929
1750241544.202199,2466
1750241544.2022772,2633
1750241544.2023563,2440
1750241544.202435,2115
1750241544.202526,1838
1750241544.2026098,1625
1750241544.2026887,1358
1750241544.2027671,1141
1750241544.2028458,1275
1750241544.2029245,1820
1750241544.2030034,2397
1750241544.2030823,2631
1750241544.203161,2483
1750241544.2032402,2160
1750241544.2033188,1874
1750241544.2033968,1670
1750241544.2034752,1427
1750241544.2035534,1182
1750241544.2036324,1242
1750241544.2037108,1738
1750241544.2037892,2357
1750241544.203868,2675
1750241544.2039468,2588
1750241544.2040253,2267
1750241544.2041044,1955
1750241544.204183,1734
1750241544.2042613,1503
1750241544.2043402,1240
1750241544.2044187,1226
1750241544.2045074,1649
1750241544.2045858,2277
1750241544.2046652,2660
1750241544.204744,2636
1750241544.204823,2335
1750241544.204902,2012
1750241544.2049809,1774
1750241544.2148733,1551
1750241544.2394726,1279
1750241544.2395525,1203
1750241544.2396257,1557
1750241544.2396994,2186
1750241544.239773,2633
1750241544.2398562,2676
1750241544.2399511,2404
1750241544.240031,2077
1750241544.2401059,1828
1750241544.2402635,1620
1750241544.240339,1347
1750241544.2404125,1204
1750241544.2404923,1461
1750241544.2405655,2059
1750241544.2406375,2565
1750241544.2407107,2696
1750241544.240916,2478
1750241544.240996,2145
1750241544.241069,1867
1750241544.2411435,1656
1750241544.2412152,1402
1750241544.241298,1233
1750241544.2413716,1422
1750241544.2414448,1977
1750241544.2415187,2510
1750241544.2415926,2698
1750241544.2416663,2531
1750241544.2417674,2216
1750241544.2418456,1932
1750241544.2419183,1707
1750241544.2419915,1439
1750241544.2420652,1220
1750241544.2421386,1359
1750241544.2422116,1929
1750241544.2422843,2548
1750241544.242358,2812
1750241544.281538,2667
1750241544.3523748,2332
1750241544.352475,2041
1750241544.352551,1835
1750241544.3527105,1582
1750241544.3527846,1303
1750241544.3528583,1321
1750241544.3529322,1806
1750241544.3531399,2456
1750241544.3532937,2808
1750241544.3533676,2734
1750241544.3534405,2413
1750241544.3535135,2113
1750241544.3535867,1906
1750241544.3633108,1674
1750241544.3791745,1368
1750241544.3793142,1288
1750241544.3794365,1674
1750241544.3849778,2324
1750241544.3854487,2754
1750241544.385563,2755
1750241544.3856702,2451
1750241544.3862972,2121
1750241544.4089365,1888
1750241544.4094656,1678
1750241544.4095469,1391
1750241544.4096234,1265
1750241544.409688,1571
1750241544.4116228,2199
1750241544.4117136,2680
1750241544.4117897,2746
1750241544.4125605,2472
1750241544.4126358,2131
1750241544.4300952,1880
1750241544.430826,1686
1750241544.4464536,1422
1750241544.4465728,1256
1750241544.4466848,1484
1750241544.446796,2084
1750241544.4469068,2620
1750241544.4470754,2769
1750241544.4471872,2552
1750241544.4472985,2213
1750241544.4482956,1939
1750241544.4484243,1734
1750241544.4485369,1470
1750241544.448649,1259
1750241544.4487607,1408
1750241544.4488714,1974
1750241544.4490056,2563
1750241544.4491181,2795
1750241544.4492285,2629
1750241544.4494421,2284
1750241544.4499087,1983
1750241544.450022,1772
1750241544.450133,1528
1750241544.4502525,1284
1750241544.4508169,1339
1750241544.4509292,1821
1750241544.4510403,2420
1750241544.4511523,2725
1750241544.451665,2638
1750241544.4517891,2327
1750241544.4519005,2020
1750241544.4521825,1793
1750241544.452295,1550
1750241544.4543145,1289
1750241544.4578059,1305
1750241544.457964,1771
1750241544.4581196,2423
1750241544.4582818,2801
1750241544.4584491,2752
1750241544.4585984,2434
1750241544.4587579,2118
1750241544.4601252,1901
1750241544.4602737,1686
1750241544.460435,1394
1750241544.4605825,1289
1750241544.460858,1622
1750241544.4609692,2247
1750241544.4610782,2701
1750241544.461187,2751
1750241544.461295,2482
1750241544.4614031,2156
1750241544.461511,1913
1750241544.4669054,1703
1750241544.466983,1423
1750241544.467057,1278
1750241544.4673977,1548
1750241544.4675405,2163
1750241544.469598,2675
1750241544.4696782,2793
1750241544.469781,2561
1750241544.46986,2234
1750241544.4699335,1977
1750241544.4700065,1773
1750241544.470079,1499
1750241544.471272,1309
1750241544.4714224,1511
1750241544.4715672,2112
1750241544.4726996,2681
1750241544.472817,2861
1750241544.4729247,2659
1750241544.505599,2325
1750241544.5198812,2062
1750241544.5200248,1874
1750241544.5201316,1610
1750241544.520237,1350
1750241544.5203428,1424
1750241544.5204606,1937
1750241544.525892,2529
1750241544.5348744,2793
1750241544.5409603,2663
1750241544.541735,2347
1750241544.6190553,2072
1750241544.6617136,1876
1750241544.66184,1620
1750241544.6812232,1338
1750241544.6813781,1378
1750241544.6815271,1905
1750241544.6818001,2582
1750241544.6819496,2913
1750241544.6966262,2781
1750241544.6967077,2422
1750241544.6967776,2136
1750241544.6968472,1966
1750241544.696914,1728
1750241544.6975262,1383
1750241544.6976845,1314
1750241544.6977527,1809
1750241544.6978197,2594
1750241544.6978865,3059
1750241544.6979592,2967
1750241544.698025,2556
1750241544.6980915,2227
1750241544.6981575,2083
1750241544.6982234,1909
1750241544.6982892,1533
1750241544.6983554,1279
1750241544.698432,1550
1750241544.6984978,2254
1750241544.6985643,2816
1750241544.69863,2880
1750241544.6986964,2550
1750241544.6987622,2196
1750241544.6988282,2001
1750241544.6988952,1850
1750241544.6989608,1545
1750241544.6990273,1289
1750241544.699093,1467
1750241544.6991594,2091
1750241544.6992257,2668
1750241544.6992912,2806
1750241544.699357,2533
1750241544.6994233,2166
1750241544.6994898,1925
1750241544.6995556,1768
1750241544.6996217,1506
1750241544.6996875,1274
1750241544.6997533,1458
1750241544.6998193,2124
1750241544.6998882,2785
1750241544.6999533,2974
1750241544.7000196,2692
1750241544.7000854,2297
1750241544.7001514,2070
1750241544.700218,1953
1750241544.7002838,1680
1750241544.7003489,1318
1750241544.700415,1340
1750241544.7004848,1960
1750241544.70056,2735
1750241544.7006357,3058
1750241544.7007108,2822
1750241544.7007856,2389
1750241544.700861,2138
1750241544.7009358,2051
1750241544.727325,1819
1750241544.727713,1401
1750241544.7278068,1279
1750241544.7286286,1797
1750241544.7287493,2615
1750241544.7288687,3057
1750241544.728988,2897
1750241544.7291067,2449
1750241544.729225,2158
1750241544.7293403,2079
1750241544.7354999,1907
1750241544.736111,1485
1750241544.7361982,1231
1750241544.736281,1582
1750241544.736366,2358
1750241544.736484,2891
1750241544.7365692,2846
1750241544.7366533,2432
1750241544.7367375,2097
1750241544.7368221,1978
1750241544.7369049,1849
1750241544.7370238,1498
1750241544.737108,1246
1750241544.737192,1546
1750241544.7372794,2324
1750241544.7373633,2936
1750241544.7374473,2965
1750241544.7375312,2552
1750241544.7376156,2156
1750241544.7376993,2002
1750241544.737783,1923
1750241544.7378666,1629
1750241544.737951,1299
1750241544.7380347,1392
1750241544.7381184,2001
1750241544.738202,2620
1750241544.7382865,2787
1750241544.7383811,2514
1750241544.738466,2153
1750241544.738551,1950
1750241544.7386363,1833
1750241544.7387202,1567
1750241544.738805,1268
1750241544.7388895,1376
1750241544.738974,2025
1750241544.7390587,2732
1750241544.7391427,2962
1750241544.7392318,2681
1750241544.7393157,2248
1750241544.7394,1998
1750241544.7394836,1910
1750241544.7395678,1703
1750241544.739652,1349
1750241544.7397368,1266
1750241544.7398202,1726
1750241544.739904,2417
1750241544.7399874,2786
1750241544.740071,2661
1750241544.740155,2277
1750241544.7402399,1978
1750241544.7403245,1839
1750241544.7404087,1666
1750241544.7404926,1363
1750241544.7405765,1252
1750241544.740661,1616
1750241544.7407455,2256
1750241544.7408292,2660
1750241544.7409134,2616
1750241544.7409973,2279
1750241544.741081,1966
1750241544.7411745,1791
1750241544.7412581,1618
1750241544.7413416,1327
1750241544.7414262,1199
1750241544.7832713,1542
1750241544.7837362,2220
1750241544.784078,2699
1750241544.7844186,2700
1750241544.7847576,2362
1750241544.7851143,2036
1750241544.7854521,1857
1750241544.785779,1687
1750241544.7861223,1362
1750241544.7864575,1164
1750241544.7867966,1504
1750241544.7871337,2310
1750241544.7874646,2954
1750241544.7878032,3009
1750241544.788141,2608
1750241544.7885737,2217
1750241544.7889142,2070
1750241544.7892466,1980
1750241544.7895818,1634
1750241544.7899714,1224
1750241544.8203468,1292
1750241544.8229423,1982
1750241544.823838,2730
1750241544.8243825,2957
1750241544.8247547,2649
1750241544.825112,2235
1750241544.825457,2039
1750241544.825801,1952
1750241544.8261428,1654
1750241544.8264828,1238
1750241544.8268218,1249
1750241544.8271623,1918
1750241544.8275023,2740
1750241544.8278427,3050
1750241544.8281846,2757
1750241544.8285553,2287
1750241544.8288953,2053
1750241544.8292263,2007
1750241544.8295808,1783
1750241544.9152448,1337
1750241544.9153342,1181
1750241544.915404,1684
1750241544.9154818,2497
1750241544.9155605,2927
1750241544.915638,2753
1750241544.9157152,2303
1750241544.9157922,2024
1750241544.91587,1961
1750241544.9159467,1798
1750241544.9161155,1393
1750241544.9195538,1181
1750241544.919677,1588
1750241544.919783,2390
1750241544.9198594,2896
1750241544.919934,2793
1750241544.9200082,2340
1750241544.920104,2010
1750241544.9213727,1922
1750241544.9214487,1809
1750241544.9215236,1441
1750241544.9215984,1159
1750241544.9216719,1437
1750241544.9217644,2201
1750241544.9218905,2803
1750241544.9219651,2827
1750241544.9220414,2422
1750241544.9221168,2048
1750241544.9222183,1917
1750241544.9228952,1846
1750241544.9229703,1545
1750241544.9230442,1212
1750241544.9231184,1315
1750241544.9319296,1931
1750241545.0329602,2539
1750241545.0485723,2682
1750241545.1618397,2390
1750241545.195084,2028
1750241545.2210486,1836
1750241545.2319028,1725
1750241545.2592766,1449
1750241545.265108,1151
1750241545.2651982,1288
1750241545.265283,1977
1750241545.2658854,2699
1750241545.266005,2906
1750241545.2660973,2590
1750241545.2661812,2158
1750241545.2671137,1945
1750241545.2672207,1877
1750241545.2673044,1635
1750241545.2673879,1242
1750241545.267471,1197
1750241545.2675538,1777
1750241545.2676528,2564
1750241545.2677364,2912
1750241545.2678192,2682
1750241545.267972,2239
1750241545.2680578,1992
1750241545.2681274,1927
1750241545.2682006,1720
1750241545.2682757,1289
1750241545.2683501,1114
1750241545.2684634,1583
1750241545.2685409,2402
1750241545.268616,2883
1750241545.2686913,2758
1750241545.2687666,2308
1750241545.2688603,1991
1750241545.2689366,1903
1750241545.26901,1768
1750241545.269073,1391
1750241545.2691414,1129
1750241545.2692168,1414
1750241545.2693126,2127
1750241545.269388,2656
1750241545.2694635,2655
1750241545.269545,2283
1750241545.2696261,1946
1750241545.2699647,1800
1750241545.2700574,1667
1750241545.2701333,1344
1750241545.2705433,1111
1750241545.2706187,1399
1750241545.2706914,2154
1750241545.2707639,2765
1750241545.2708366,2810
1750241545.270908,2413
1750241545.270989,2017
1750241545.2710629,1849
1750241545.2711363,1756
1750241545.2712083,1453
1750241545.2712805,1114
1750241545.2713523,1222
1750241545.271424,1883
1750241545.2714958,2565
1750241545.271567,2756
1750241545.2716389,2463
1750241545.2717319,2075
1750241545.2718046,1880
1750241545.271876,1788
1750241545.2719471,1512
1750241545.2720258,1143
1750241545.2720973,1169
1750241545.2721684,1788
1750241545.2722397,2532
1750241545.2723105,2812
1750241545.2723818,2557
1750241545.2724528,2137
1750241545.2725239,1906
1750241545.272595,1827
1750241545.2726667,1597
1750241545.2727394,1204
1750241545.272811,1130
1750241545.2728822,1679
1750241545.2729535,2479
1750241545.273015,2872
1750241545.273081,2676
1750241545.2731535,2228
1750241545.273226,1959
1750241545.2732985,1899
1750241545.2733707,1726
1750241545.2734492,1303
1750241545.2735217,1072
1750241545.2735953,1459
1750241545.2736619,2249
1750241545.2737236,2759
1750241545.273785,2675
1750241545.2738569,2242
1750241545.2739289,1922
1750241545.2740042,1833
1750241545.2740762,1713
1750241545.274148,1350
1750241545.2742202,1096
1750241545.2742918,1422
1750241545.3136957,2227
1750241545.315459,2838
1750241545.322918,2839
1750241545.3230047,2399
1750241545.334171,2005
1750241545.4022727,1876
1750241545.4138143,1812
1750241545.4222896,1504
1750241545.422405,1142
1750241545.4870396,1206
1750241545.4878519,1797
1750241545.487939,2408
1750241545.4880204,2579
1750241545.4918752,2310
1750241545.494504,1942
1750241545.4945824,1725
1750241545.494657,1610
1750241545.499973,1374
1750241545.5002196,1119
1750241545.500295,1241
1750241545.5003655,1847
1750241545.5004387,2485
1750241545.5025482,2682
1750241545.5026722,2421
1750241545.5027912,2028
1750241545.502915,1787
1750241545.5030339,1671
1750241545.523824,1440
1750241545.5242536,1124
1750241545.5243433,1141
1750241545.5244958,1699
1750241545.5245821,2413
1750241545.5246685,2728
1750241545.5247543,2531
1750241545.5248396,2126
1750241545.5249405,1859
1750241545.525021,1746
1750241545.533212,1542
1750241545.5343034,1189
1750241545.5343947,1090
1750241545.534481,1552
1750241545.534567,2299
1750241545.534672,2737
1750241545.5347586,2644
1750241545.534844,2251
1750241545.534929,1936
1750241545.5350187,1799
1750241545.535132,1640
1750241545.535218,1302
1750241545.5353036,1080
1750241545.5353892,1331
1750241545.5354757,1954
1750241545.535581,2440
1750241545.5356658,2496
1750241545.5357502,2205
1750241545.5358346,1875
1750241545.5359204,1669
1750241545.5360496,1506
1750241545.5361352,1239
1750241545.5362203,1080
1750241545.5363052,1350
1750241545.53639,1996
1750241545.5364926,2518
1750241545.5365777,2586
1750241545.5366664,2279
1750241545.5367527,1930
1750241545.536838,1722
1750241545.5369332,1569
1750241545.5370104,1284
1750241545.5370867,1061
1750241545.5371623,1317
1750241545.5372374,2076
1750241545.5516715,2779
1750241545.5574148,2936
1750241545.5578203,2590
1750241545.5607088,2162
1750241545.5608199,1950
1750241545.5609264,1865
1750241545.5611107,1594
1750241545.561216,1190
1750241545.5613215,1124
1750241545.5614262,1635
1750241545.5615308,2332
1750241545.561662,2667
1750241545.5617793,2513
1750241545.5618849,2145
1750241545.5619895,1884
1750241545.5620952,1756
1750241545.5622005,1535
1750241545.5623055,1202
1750241545.5624106,1146
1750241545.562515,1619
1750241545.5626206,2308
1750241545.5659204,2667
1750241545.566039,2534
1750241545.5661445,2153
1750241545.5662508,1868
1750241545.566356,1736
1750241545.5664623,1544
1750241545.5665672,1213
1750241545.5666761,1130
1750241545.566784,1617
1750241545.5669334,2411
1750241545.5670426,2873
1750241545.6236446,2749
1750241545.6392262,2306
1750241545.63933,1994
1750241545.644674,1903
1750241545.6448617,1760
1750241545.6449528,1368
1750241545.6450467,1111
1750241545.6451304,1461
1750241545.6461973,2293
1750241545.6462824,2908
1750241545.6472378,2895
1750241545.6473293,2459
1750241545.6474826,2103
1750241545.647565,2006
1750241545.6476514,1910
1750241545.6477327,1525
1750241545.647825,1139
1750241545.6479006,1301
1750241545.6479764,2051
1750241545.648051,2746
1750241545.648126,2867
1750241545.648201,2495
1750241545.6482897,2095
1750241545.6483839,1938
1750241545.648463,1870
1750241545.6485405,1573
1750241545.6486177,1191
1750241545.6577473,1231
1750241545.6638644,1858
1750241545.6639533,2562
1750241545.6640308,2792
1750241545.6641486,2513
1750241545.6642232,2095
1750241545.664298,1861
1750241545.664372,1780
1750241545.664446,1581
1750241545.66452,1262
1750241545.6645932,1229
1750241545.6646667,1707
1750241545.66474,2354
1750241545.6648135,2662
1750241545.6648877,2511
1750241545.6649609,2142
1750241545.665042,1860
1750241545.6651208,1723
1750241545.6652017,1550
1750241545.6652753,1275
1750241545.6653488,1212
1750241545.665422,1600
1750241545.665496,2207
1750241545.6655695,2559
1750241545.6656435,2494
1750241545.6657166,2173
1750241545.6657906,1878
1750241545.6658642,1701
1750241545.6659374,1520
1750241545.6660113,1253
1750241545.6660857,1186
1750241545.6661596,1584
1750241545.6662364,2263
1750241545.6663141,2702
1750241545.666391,2671
1750241545.6664677,2332
1750241545.666545,2018
1750241545.6666224,1845
1750241545.6666992,1674
1750241545.6667762,1350
1750241545.6668522,1141
1750241545.6669283,1420
1750241545.6670046,2121
1750241545.6670809,2695
1750241545.6671624,2777
1750241545.667239,2460
1750241545.667315,2108
1750241545.6673918,1918
1750241545.6674683,1779
1750241545.667545,1469
1750241545.6676211,1164
1750241545.667697,1284
1750241545.667773,1899
1750241545.6678486,2522
1750241545.6679244,2707
1750241545.6705594,2457
1750241545.670644,2101
1750241545.6707218,1885
1750241545.6707997,1753
1750241545.670877,1476
1750241545.6709542,1165
1750241545.6710317,1258
1750241545.6711166,1898
1750241545.6711934,2617
1750241545.6712701,2872
1750241545.6713467,2615
1750241545.6714232,2205
1750241545.6715004,1970
1750241545.6715777,1867
1750241545.6716554,1613
1750241545.671984,1224
1750241545.6720953,1181
1750241545.6721976,1762
1750241545.6722758,2570
1750241545.6723526,2952
1750241545.672429,2746
1750241545.6725056,2298
1750241545.6725826,2026
1750241545.672659,1946
1750241545.6727355,1754
1750241545.6728117,1341
1750241545.6728883,1149
1750241545.6730564,1567
1750241545.6731336,2349
1750241545.6732097,2837
1750241545.673286,2752
1750241545.6733613,2337
1750241545.6734374,2024
1750241545.6735134,1916
1750241545.6735883,1769
1750241545.6736488,1393
1750241545.6737213,1123
1750241545.673797,1387
1750241545.6738732,2089
1750241545.6739488,2629
1750241545.6740253,2653
1750241545.6741016,2300
1750241545.6741853,1964
1750241545.6742654,1808
1750241545.674342,1673
1750241545.674421,1357
1750241545.6744967,1126
1750241545.6745725,1417
1750241545.6746485,2194
1750241545.6747243,2838
1750241545.6748002,2902
1750241545.6748767,2506
1750241545.6749527,2104
1750241545.675041,1941
1750241545.6751199,1864
1750241545.6751964,1571
1750241545.6752737,1206
1750241545.6753502,1261
1750241545.6754265,1887
1750241545.6755025,2584
1750241545.675579,2820
1750241545.6756556,2561
1750241545.6757321,2164
1750241545.6758082,1933
1750241545.6758826,1834
1750241545.6759553,1606
1750241545.676035,1261
1750241545.6761134,1199
1750241545.6761928,1641
1750241545.6762717,2262
1750241545.6763513,2578
1750241545.6764302,2461
1750241545.676509,2115
1750241545.676588,1818
1750241545.6766672,1642
1750241545.6767454,1442
1750241545.676824,1186
1750241545.6769032,1179
1750241545.6769834,1621
1750241545.6770506,2248
1750241545.6771297,2585
1750241545.6772091,2487
1750241545.6772873,2146
1750241545.6773663,1857
1750241545.6774447,1689
1750241545.6775231,1484
1750241545.677598,1171
1750241545.6776617,1097
1750241545.677737,1566
1750241545.6778154,2353
1750241545.6778944,2845
1750241545.6779728,2767
1750241545.678052,2346
1750241545.6781282,2012
1750241545.6782088,1887
1750241545.6796033,1738
1750241545.6798272,1352
1750241545.6799972,1060
1750241545.6801476,1342
1750241545.680295,2142
1750241545.6804886,2808
1750241545.6806395,2886
1750241545.6809494,2494
1750241545.6810203,2098
1750241545.6811442,1934
1750241545.6813068,1831
1750241545.6814542,1499
1750241545.6830928,1127
1750241545.7504594,1199
1750241545.750606,1824
1750241545.7507396,2489
1750241545.7508712,2705
1750241545.751019,2454
1750241545.7511508,2075
1750241545.7512827,1838
1750241545.7514288,1711
1750241545.7515604,1467
1750241545.751793,1173
1750241545.7519066,1208
1750241545.7520163,1720
1750241545.7521248,2326
1750241545.7522483,2577
1750241545.7523587,2405
1750241545.752467,2049
1750241545.752575,1770
1750241545.7527103,1605
1750241545.7528205,1390
1750241545.7529304,1141
1750241545.7531953,1198
1750241545.7533073,1729
1750241545.753418,2395
1750241545.7535274,2699
1750241545.7538226,2537
1750241545.7539396,2160
1750241545.7541263,1878
1750241545.7598422,1727
1750241545.770708,1512
1750241545.7707918,1183
1750241545.7708673,1121
1750241545.7709422,1616
1750241545.7710166,2395
1750241545.771092,2853
1750241545.7711666,2756
1750241545.771241,2340
1750241545.7713146,2017
1750241545.7714002,1893
1750241545.7714753,1742
1750241545.7715507,1379
1750241545.7716246,1119
1750241545.771718,1368
1750241545.7717943,2046
1750241545.7718682,2588
1750241545.7721345,2648
1750241545.7722075,2332
1750241545.772451,2002
1750241545.8140779,1819
1750241545.8418553,1650
1750241545.849621,1315
1750241545.8497581,1079
1750241545.8498347,1357
1750241545.8499086,2110
1750241545.8499868,2744
1750241545.8500772,2830
1750241545.8501523,2464
1750241545.8537545,2070
1750241545.853844,1889
1750241545.8539326,1787
1750241545.854014,1484
1750241545.8540964,1145
1750241545.8541772,1255
1750241545.854259,1936
1750241545.85434,2655
1750241545.8544211,2869
1750241545.8545027,2566
1750241545.8545833,2153
1750241545.8546646,1946
1750241545.8547459,1862
1750241545.8548274,1594
1750241545.8549078,1201
1750241545.854989,1183
1750241545.8551302,1782
1750241545.855209,2550
1750241545.8552818,2869
1750241545.855354,2628
1750241545.8554265,2188
1750241545.8554988,1932
1750241545.8555865,1853
1750241545.855659,1645
1750241545.8557308,1251
1750241545.8558023,1125
1750241545.8558812,1599
1750241545.8561232,2362
1750241545.856601,2784
1750241545.8567414,2648
1750241545.8569026,2225
1750241545.8569999,1922
1750241545.8570654,1818
1750241545.8571439,1663
1750241545.8572211,1312
1750241545.8572965,1123
1750241545.8573744,1469
1750241545.8574529,2177
1750241545.8575327,2659
1750241545.857609,2624
1750241545.857671,2251
1750241545.8577363,1927
1750241545.8578136,1784
1750241545.8578987,1642
1750241545.8579755,1323
1750241545.8580525,1120
1750241545.85813,1430
1750241545.8582084,2163
1750241545.8582864,2725
1750241545.858375,2745
1750241545.8584578,2366
1750241545.858536,2008
1750241545.858611,1860
1750241545.8586884,1748
1750241545.858765,1424
1750241545.8588424,1118
1750241545.8589182,1306
1750241545.8589926,2027
1750241545.8590682,2698
1750241545.8591442,2827
1750241545.85922,2478
1750241545.8592956,2087
1750241545.8593714,1916
1750241545.8594477,1828
1750241545.8595238,1529
1750241545.8595996,1161
1750241545.8600783,1236
1750241545.8603497,1909
1750241545.8605404,2653
1750241545.8607244,2890
1750241545.8608937,2597
1750241545.8734758,2184
1750241545.8801327,1986
1750241545.8802247,1919
1750241545.8895516,1660
1750241545.8898888,1233
1750241545.8902864,1140
1750241545.9107623,1665
1750241545.9108818,2413
1750241545.9110053,2761
1750241545.9111404,2565
1750241545.911248,2148
1750241545.911354,1890
1750241545.9114609,1801
1750241545.9115672,1602
1750241545.911673,1229
1750241545.9117935,1131
1750241545.9118996,1648
1750241545.912004,2465
1750241545.9121087,2910
1750241545.912213,2745
1750241545.9123178,2280
1750241545.9124224,1975
1750241545.9125278,1902
1750241545.9126346,1758
1750241545.9127395,1354
1750241545.9128447,1095
1750241545.913048,1446
1750241545.9131553,2256
1750241545.91326,2831
1750241545.913364,2789
1750241545.913469,2349
1750241545.9136643,2003
1750241545.9137738,1913
1750241545.9571474,1816
1750241545.962463,1441
1750241545.962581,1098
1750241545.962707,1311
1750241545.962818,2071
1750241545.9629273,2728
1750241545.9630375,2800
1750241545.9631608,2409
1750241545.9632704,2031
1750241545.9633791,1903
1750241545.9634886,1831
1750241545.9636097,1506
1750241545.9637191,1129
1750241545.963829,1233
1750241545.9639378,1930
1750241545.964064,2641
1750241545.9641736,2811
1750241545.9642823,2469
1750241545.9643915,2055
1750241545.9645169,1870
1750241545.9646268,1805
1750241545.9647355,1549
1750241545.964845,1181
1750241545.9650202,1199
1750241546.013288,1809
1750241546.0136926,2548
1750241546.0225437,2832
1750241546.023549,2584
1750241546.0238633,2158
1750241546.0241735,1903
1750241546.0489557,1818
1750241546.0491636,1631
1750241546.049271,1277
1750241546.049377,1134
1750241546.0494823,1483
1750241546.0496798,2083
1750241546.0710008,2441
1750241546.0719254,2382
1750241546.072004,2065
1750241546.072078,1766
1750241546.0721571,1582
1750241546.0722303,1398
1750241546.121564,1148
1750241546.1220562,1112
1750241546.1257749,1517
1750241546.1258523,2157
1750241546.1259232,2545
1750241546.1259918,2491
1750241546.1260612,2156
1750241546.1264262,1847
1750241546.1291792,1667
1750241546.1292708,1485
1750241546.1293504,1186
1750241546.1294284,1059
1750241546.1295056,1441
1750241546.129619,2198
1750241546.1297045,2746
1750241546.1297908,2756
1750241546.1298678,2383
1750241546.1299446,2035
1750241546.1300223,1873
1750241546.1301005,1732
1750241546.1303008,1389
1750241546.1303728,1095
1750241546.130442,1308
1750241546.1305099,2043
1750241546.1305788,2718
1750241546.1306481,2870
1750241546.130718,2554
1750241546.1307855,2173
1750241546.1308553,1973
1750241546.1309226,1851
1750241546.1309848,1544
1750241546.131049,1164
1750241546.131124,1155
1750241546.1311936,1676
1750241546.1312637,2308
1750241546.1313303,2574
1750241546.1313996,2407
1750241546.1314673,2065
1750241546.1315365,1806
1750241546.1316032,1644
1750241546.1316726,1401
1750241546.1317842,1122
1750241546.1318533,1173
1750241546.1319213,1716
1750241546.131989,2381
1750241546.1320581,2670
1750241546.1321251,2493
1750241546.1321945,2118
1750241546.1322622,1846
1750241546.1323314,1701
1750241546.1323977,1473
1750241546.1324644,1146
1750241546.132532,1133
1750241546.132599,1703
1750241546.1326656,2518
1750241546.1327336,2939
1750241546.132803,2766
1750241546.13287,2309
1750241546.1329303,2012
1750241546.133107,1929
1750241546.1331751,1758
1750241546.1332452,1329
1750241546.1333117,1059
1750241546.1333797,1409
1750241546.133447,2226
1750241546.1335135,2822
1750241546.1335742,2816
1750241546.1336384,2403
1750241546.1337056,2051
1750241546.133777,1919
1750241546.1338484,1783
1750241546.1339154,1408
1750241546.1339824,1101
1750241546.134052,1337
1750241546.1341193,2085
1750241546.1341882,2722
1750241546.1342556,2804
1750241546.1343255,2435
1750241546.1343923,2042
1750241546.1344619,1862
1750241546.1345298,1767
1750241546.1345992,1482
1750241546.1346657,1148
1750241546.134733,1193
1750241546.1348,1730
1750241546.1348667,2317
1750241546.1349359,2521
1750241546.1350026,2312
1750241546.169243,1966
1750241546.169453,1718
1750241546.1695354,1560
1750241546.1717722,1317
1750241546.2357285,1081
1750241546.262617,1221
1750241546.2629633,1843
1750241546.2630699,2508
1750241546.2992406,2732
1750241546.406278,2481
1750241546.4155877,2083
1750241546.41598,1838
1750241546.4846246,1722
1750241546.4992871,1485
1750241546.5260205,1141
1750241546.526116,1139
1750241546.5261996,1734
1750241546.531795,2539
1750241546.5319035,2920
1750241546.5319793,2716
1750241546.5320494,2268
1750241546.5321176,1997
1750241546.5321908,1922
1750241546.5322587,1723
1750241546.5323272,1283
1750241546.532398,1054
1750241546.532466,1459
1750241546.5423226,2265
1750241546.5424576,2791
1750241546.561873,2725
1750241546.5719082,2309
1750241546.57199,1998
1750241546.5720673,1900
1750241546.5724773,1746
1750241546.592096,1342
1750241546.592345,1062
1750241546.5933883,1378
1750241546.5934603,2178
1750241546.5935252,2782
1750241546.593588,2783
1750241546.5936558,2360
1750241546.593942,1995
1750241546.5966759,1877
1750241546.5967574,1779
1750241546.596834,1428
1750241546.5969024,1098
1750241546.5969691,1306
1750241546.5970392,2070
1750241546.5971112,2753
1750241546.5971909,2844
1750241546.597266,2444
1750241546.5973396,2038
1750241546.597413,1896
1750241546.597511,1841
1750241546.6021535,1531
1750241546.602248,1127
1750241546.6023304,1178
1750241546.602412,1853
1750241546.6047559,2601
1750241546.6048732,2823
1750241546.604988,2498
1750241546.6051075,2065
1750241546.6052132,1875
1750241546.6057055,1832
1750241546.6061459,1588
1750241546.60673,1179
1750241546.6069345,1126
1750241546.6070073,1707
1750241546.6070795,2485
1750241546.6071515,2812
1750241546.6072237,2563
1750241546.6072965,2114
1750241546.6073687,1871
1750241546.6074407,1821
1750241546.607513,1634
1750241546.6075842,1237
1750241546.607656,1105
1750241546.6077273,1597
1750241546.6088395,2396
1750241546.618328,2824
1750241546.618429,2653
1750241546.6185083,2196
1750241546.618587,1907
1750241546.6186655,1846
1750241546.6187449,1700
1750241546.6188245,1300
1750241546.6189685,1061
1750241546.619053,1431
1750241546.6191316,2230
1750241546.6192102,2769
1750241546.6192882,2701
1750241546.6193666,2261
1750241546.6194456,1929
1750241546.6195235,1843
1750241546.6196024,1736
1750241546.6196816,1363
1750241546.6197598,1065
1750241546.6198385,1346
1750241546.619917,2150
1750241546.6199954,2795
1750241546.6200733,2821
1750241546.6201513,2389
1750241546.6202295,2004
1750241546.6203074,1893
1750241546.6203856,1835
1750241546.6204634,1505
1750241546.620544,1120
1750241546.620622,1224
1750241546.6207058,1923
1750241546.6207836,2627
1750241546.6208615,2787
1750241546.6209397,2437
1750241546.6210008,2024
1750241546.621079,1849
1750241546.6211574,1785
1750241546.6212354,1509
1750241546.6213138,1129
1750241546.6213932,1164
1750241546.6214726,1809
1750241546.621551,2558
1750241546.6216152,2806
1750241546.6216853,2506
1750241546.6217744,2071
1750241546.6218526,1861
1750241546.6219308,1812
1750241546.6220095,1585
1750241546.6220822,1180
1750241546.6221547,1100
1750241546.6222255,1652
1750241546.6222985,2439
1750241546.62237,2803
1750241546.622441,2581
1750241546.6225114,2131
1750241546.622582,1873
1750241546.6226566,1814
1750241546.6227279,1630
1750241546.6227984,1218
1750241546.6228695,1046
1750241546.6229403,1511
1750241546.6230114,2336
1750241546.623081,2820
1750241546.6231518,2685
1750241546.6232226,2225
1750241546.6232936,1919
1750241546.623367,1854
1750241546.6234381,1725
1750241546.6235092,1323
1750241546.6235802,1038
1750241546.623652,1352
1750241546.6237233,2148
1750241546.6237938,2741
1750241546.6238654,2728
1750241546.623941,2297
1750241546.6240122,1934
1750241546.6240833,1824
1750241546.6241543,1738
1750241546.6242256,1396
1750241546.624297,1068
1750241546.6243665,1258
1750241546.6244378,1987
1750241546.6245089,2640
1750241546.6245854,2734
1750241546.6246564,2357
1750241546.6247277,1963
1750241546.6247973,1807
1750241546.6248684,1733
1750241546.6249385,1436
1750241546.6249995,1080
1750241546.6990657,1177
1750241546.7055752,1861
1750241546.708034,2582
1750241546.7081528,2778
1750241546.7082303,2448
1750241546.7083054,2025
1750241546.749255,1837
1750241546.7500775,1783
1750241546.8657174,1526
1750241546.9180012,1128
1750241546.9537969,1116
1750241546.9634645,1746
1750241546.9811366,2548
1750241547.0227659,2865
1750241547.0275962,2589
1750241547.0292826,2125
1750241547.0297284,1890
1750241547.0311508,1852
1750241547.0320852,1651
1750241547.0330222,1226
1750241547.0334933,1081
1750241547.0338786,1590
1750241547.0351412,2411
1750241547.0383332,2843
1750241547.0420623,2656
1750241547.0793648,2192
1750241547.1220393,1918
1750241547.1257703,1872
1750241547.1258783,1713
1750241547.1259987,1287
1750241547.126104,1054
1750241547.1262095,1473
1750241547.1263146,2322
1750241547.12642,2865
1750241547.1265252,2757
1750241547.1266303,2281
1750241547.1267362,1953
1750241547.1268413,1891
1750241547.1269457,1782
1750241547.1270502,1373
1750241547.1271546,1046
1750241547.1272595,1336
1750241547.127364,2165
1750241547.1274683,2815
1750241547.127572,2820
1750241547.1276762,2366
1750241547.1277812,1980
1750241547.1278856,1881
1750241547.12973,1825
1750241547.129847,1486
1750241547.1299534,1098
1750241547.130038,1208
1750241547.1301153,1907
1750241547.1301918,2599
1750241547.130268,2750
1750241547.1303442,2403
1750241547.1304212,1994
1750241547.1304977,1811
1750241547.1305733,1744
1750241547.130649,1487
1750241547.130725,1136
1750241547.1308005,1156
1750241547.1308763,1726
1750241547.1309521,2396
1750241547.131028,2639
1750241547.1311038,2399
1750241547.1311793,2002
1750241547.1312554,1757
1750241547.131331,1656
1750241547.1314063,1451
1750241547.131482,1139
1750241547.1315572,1114
1750241547.1316323,1604
1750241547.131714,2277
1750241547.1420977,2601
1750241547.142258,2444
1750241547.1423695,2057
1750241547.1424809,1771
1750241547.142591,1635
1750241547.1427128,1444
1750241547.142823,1134
1750241547.1429322,1078
1750241547.1430423,1558
1750241547.1431646,2305
1750241547.143274,2727
1750241547.1433911,2610
1750241547.143502,2203
1750241547.1436336,1904
1750241547.1438391,1790
1750241547.1440554,1618
1750241547.1441824,1237
1750241547.1443043,1026
1750241547.1444259,1405
1750241547.1445515,2214
1750241547.1446757,2786
1750241547.144798,2759
1750241547.1452417,2336
1750241547.1477153,1992
1750241547.1481576,1882
1750241547.1482782,1757
1750241547.14842,1366
1750241547.1485417,1028
1750241547.149888,1268
1750241547.1499696,2070
1750241547.150047,2762
1750241547.1501217,2842
1750241547.1501951,2431
1750241547.1502676,2031
1750241547.2153203,1892
1750241547.225835,1813
1750241547.225914,1468
1750241547.2259881,1068
1750241547.2264254,1178
1750241547.2472613,1923
1750241547.3006632,2691
1750241547.3007681,2882
1750241547.3008533,2516
1750241547.300948,2070
1750241547.3010209,1884
1750241547.3010907,1831
1750241547.3012424,1555
1750241547.3013194,1129
1750241547.3014019,1097
1750241547.3014843,1712
1750241547.301568,2497
1750241547.301651,2808
1750241547.3017466,2542
1750241547.3018296,2089
1750241547.3019123,1846
1750241547.301996,1788
1750241547.318507,1585
1750241547.318606,1180
1750241547.3186784,1042
1750241547.3187528,1507
1750241547.3188276,2257
1750241547.3189023,2656
1750241547.3189764,2501
1750241547.3190513,2078
1750241547.3191257,1796
1750241547.3192,1708
1750241547.3192756,1542
1750241547.3193424,1180
1750241547.3194146,1036
1750241547.3194888,1491
1750241547.3195624,2303
1750241547.3196359,2792
1750241547.3197105,2671
1750241547.3197844,2211
1750241547.3198588,1887
1750241547.319935,1807
1750241547.3200092,1691
1750241547.3200836,1314
1750241547.3201578,1031
1750241547.320232,1324
1750241547.3203065,2107
1750241547.3203807,2718
1750241547.3204563,2737
1750241547.3205304,2325
1750241547.3206165,1952
1750241547.320689,1822
1750241547.3207629,1741
1750241547.3208373,1424
1750241547.320913,1074
1750241547.320983,1160
1750241547.3210485,1766
1750241547.321122,2383
1750241547.3211958,2557
1750241547.3212702,2291
1750241547.3213456,1917
1750241547.32142,1685
1750241547.3214948,1565
1750241547.3215683,1339
1750241547.3216333,1090
1750241547.3217103,1181
1750241547.3217878,1723
1750241547.3219037,2312
1750241547.3219788,2517
1750241547.322052,2306
1750241547.3221262,1949
1750241547.3452642,1694
1750241547.3543746,1536
1750241547.354487,1291
1750241547.354961,1023
1750241547.355111,1133
1750241547.3552182,1782
1750241547.3553247,2538
1750241547.356497,2834
1750241547.3599155,2588
1750241547.36003,2151
1750241547.3601384,1894
1750241547.3605292,1805
1750241547.3606067,1581
1750241547.3606813,1159
1750241547.3607545,1001
1750241547.360827,1472
1750241547.3608987,2283
1750241547.3609648,2767
1750241547.3610272,2657
1750241547.3610988,2226
1750241547.3611708,1917
1750241547.3612423,1817
1750241547.3613138,1657
1750241547.3613856,1262
1750241547.3614562,1014
1750241547.361527,1350
1750241547.3615918,2131
1750241547.3616555,2706
1750241547.3617454,2710
1750241547.361817,2307
1750241547.3618968,1938
1750241547.3619683,1787
1750241547.3620396,1666
1750241547.3621106,1336
1750241547.3621824,1050
1750241547.3622534,1246
1750241547.3623242,1921
1750241547.3623953,2514
1750241547.3624663,2607
1750241547.362538,2276
1750241547.3626094,1910
1750241547.362681,1727
1750241547.3627517,1608
1750241547.362823,1313
1750241547.3628943,1037
1750241547.3629656,1238
1750241547.363037,1971
1750241547.3631089,2666
1750241547.36318,2814
1750241547.363251,2457
1750241547.3637881,2034
1750241547.36391,1845
1750241547.3639832,1770
1750241547.3640547,1487
1750241547.3641262,1095
1750241547.3641975,1120
1750241547.3642688,1776
1750241547.3643398,2561
1750241547.3644102,2847
1750241547.364481,2564
1750241547.3645518,2128
1750241547.3646228,1916
1750241547.3646934,1857
1750241547.364764,1606
1750241547.3648343,1163
1750241547.364905,1066
1750241547.3649688,1644
1750241547.3650591,2486
1750241547.365526,2885
1750241547.3943362,2659
1750241547.4552314,2185
1750241547.4621675,1922
1750241547.463649,1883
1750241547.4660087,1715
1750241547.4661312,1278
1750241547.466767,1036
1750241547.466925,1429
1750241547.4794736,2227
1750241547.5290706,2733
1750241547.5291677,2635
1750241547.5295997,2192
1750241547.5296788,1868
1750241547.5297573,1779
1750241547.5298347,1658
1750241547.5299122,1294
1750241547.5299907,1037
1750241547.5300636,1345
1750241547.5302835,2115
1750241547.530366,2695
1750241547.530443,2692
1750241547.5305164,2274
1750241547.530594,1902
1750241547.5306678,1781
1750241547.530744,1714
1750241547.5308218,1417
1750241547.5308938,1098
1750241547.5309722,1221
1750241547.5310485,1849
1750241547.531126,2450
1750241547.5312033,2575
1750241547.5312815,2270
1750241547.5313616,1907
1750241547.5314386,1723
1750241547.5315108,1623
1750241547.531589,1360
1750241547.5316672,1079
1750241547.5352507,1227
1750241547.5551043,1907
1750241547.555193,2603
1750241547.5649595,2794
1750241547.56505,2483
1750241547.5651233,2062
1750241547.565197,1848
1750241547.5652747,1776
1750241547.5654142,1544
1750241547.5655072,1168
1750241547.5655718,1106
1750241547.565651,1612
1750241547.5657268,2311
1750241547.5658028,2640
1750241547.5658782,2465
1750241547.565955,2077
1750241547.56603,1815
1750241547.5661063,1701
1750241547.5661824,1496
1750241547.5662582,1154
1750241547.566338,1073
1750241547.5664144,1541
1750241547.5664902,2266
1750241547.566566,2663
1750241547.5666416,2542
1750241547.5667186,2150
1750241547.5667942,1854
1750241547.5668705,1727
1750241547.566947,1555
1750241547.5670235,1212
1750241547.5670993,1041
1750241547.567191,1396
1750241547.567292,2108
1750241547.5673933,2594
1750241547.5674949,2567
1750241547.5675962,2200
1750241547.5676978,1875
1750241547.6264765,1732
1750241547.6884892,1596
1750241547.7391088,1273
1750241547.740413,1033
1750241547.7407804,1283
1750241547.7410903,1977
1750241547.7419145,2547
1750241547.7420006,2612
1750241547.7420826,2277
1750241547.7421637,1933
1750241547.7422442,1771
1750241547.7423248,1647
1750241547.7424045,1327
1750241547.7424853,1036
1750241547.7425652,1249
1750241547.7426448,2007
1750241547.7427254,2711
1750241547.7428057,2845
1750241547.7428856,2474
1750241547.7429652,2060
1750241547.743045,1898
1750241547.7431233,1841
1750241547.7431962,1548
1750241547.7432778,1122
1750241547.743351,1103
1750241547.743426,1718
1750241547.743499,2476
1750241547.743572,2762
1750241547.7436442,2499
1750241547.7577014,2082
1750241547.7794616,1872
1750241547.8617442,1813
1750241547.8746524,1575
1750241547.8747542,1156
1750241547.8748317,1062
1750241547.8749077,1607
1750241547.8760884,2402
1750241547.8770256,2778
1750241547.8892038,2566
1750241547.896391,2114
1750241547.896472,1852
1750241547.896547,1801
1750241547.8966258,1635
1750241547.8966992,1230
1750241547.8967724,1035
1750241547.896845,1461
1750241547.896918,2263
1750241547.8969834,2753
1750241547.8970568,2637
1750241547.8971295,2184
1750241547.897202,1868
1750241547.8972747,1797
1750241547.897347,1684
1750241547.8974197,1312
1750241547.8974922,1043
1750241547.8975618,1352
1750241547.8976223,2131
1750241547.897695,2712
1750241547.8977678,2695
1750241547.8978393,2266
1750241547.8979118,1908
1750241547.8979843,1807
1750241547.8980567,1729
1750241547.8981287,1385
1750241547.8982017,1038
1750241547.8982737,1207
1750241547.8983462,1933
1750241547.9140224,2600
1750241547.9141133,2706
1750241547.9141955,2328
1750241547.9142754,1925
1750241547.915341,1771
1750241547.9154162,1711
1750241547.9154909,1425
1750241547.9155648,1060
1750241547.9156382,1139
1750241547.9157112,1814
1750241547.915784,2542
1750241547.9158566,2743
1750241547.9159293,2410
1750241547.9160023,1981
1750241547.9160752,1799
1750241547.9161472,1762
1750241547.91622,1519
1750241547.9163034,1111
1750241547.916376,1067
1750241547.9164493,1666
1750241547.9165215,2458
1750241547.916595,2781
1750241547.916668,2515
1750241547.9167404,2057
1750241547.9168143,1827
1750241547.9168878,1802
1750241547.91696,1621
1750241547.917033,1201
1750241547.9171054,1037
1750241547.9171777,1514
1750241547.917251,2317
1750241547.9173243,2753
1750241547.917397,2579
1750241547.9174697,2118
1750241547.9175417,1835
1750241547.9176142,1789
1750241547.9176872,1654
1750241547.9177594,1255
1750241547.9178321,1023
1750241547.9179044,1417
1750241547.917977,2246
1750241547.9180496,2796
1750241547.9181218,2710
1750241547.9181938,2238
1750241547.918272,1890
1750241547.918344,1820
1750241547.918426,1740
1750241547.9184985,1375
1750241547.9185708,1043
1750241547.9186425,1263
1750241547.9187143,2012
1750241547.9187868,2637
1750241547.918859,2682
1750241547.918931,2281
1750241547.9190028,1909
1750241547.9190743,1791
1750241547.9191465,1722
1750241547.9192185,1399
1750241547.91929,1046
1750241547.9193623,1190
1750241547.9194343,1915
1750241547.919506,2618
1750241547.919578,2758
1750241547.9196498,2387
1750241547.9197214,1968
1750241547.9197934,1807
1750241547.9198651,1767
1750241547.9199371,1504
1750241547.9200096,1112
1750241547.9200816,1119
1750241547.9201539,1741
1750241547.9202342,2487
1750241547.9203072,2746
1750241547.920379,2458
1750241547.9204512,2026
1750241547.9205227,1820
1750241547.9205952,1780
1750241547.9206672,1564
1750241547.9207392,1161
1750241547.92081,1070
1750241547.9208808,1608
1750241547.9209456,2389
1750241547.9210105,2754
1750241547.9210818,2536
1750241547.921153,2087
1750241547.9212239,1831
1750241547.9212952,1783
1750241547.921366,1616
1750241547.9214363,1215
1750241547.9215083,1035
1750241547.9215758,1477
1750241547.921636,2280
1750241547.9273078,2756
1750241547.9491322,2625
1750241547.9492102,2174
1750241547.9492824,1872
1750241547.9493544,1812
1750241547.9494274,1693
1750241547.9494994,1300
1750241547.9495697,1013
1750241547.9496307,1313
1750241547.9497035,2088
1750241547.9497757,2662
1750241547.9498472,2641
1750241547.9499216,2216
1750241547.949995,1871
1750241547.9500663,1782
1750241547.9501383,1708
1750241547.95021,1369
1750241547.9502816,1051
1750241547.9697602,1271
1750241547.9699113,2041
1750241547.9787998,2713
1750241547.9826078,2789
1750241547.9835653,2383
1750241547.9836373,1984
1750241547.9837048,1855
1750241547.9840271,1805
1750241548.0086565,1498
1750241548.008765,1105
1750241548.0088432,1175
1750241548.0089197,1862
1750241548.0089834,2601
1750241548.0090592,2803
1750241548.0114427,2466
1750241548.0115328,2038
1750241548.011618,1863
1750241548.0117154,1832
1750241548.0118027,1588
1750241548.011889,1169
1750241548.0119748,1099
1750241548.0120604,1658
1750241548.0121477,2415
1750241548.0122328,2736
1750241548.0123203,2496
1750241548.012405,2061
1750241548.0124905,1824
1750241548.0125766,1772
1750241548.01267,1584
1750241548.0127542,1197
1750241548.01284,1083
1750241548.012917,1590
1750241548.0130072,2390
1750241548.0130954,2807
1750241548.0131836,2624
1750241548.0132713,2161
1750241548.0133588,1872
1750241548.0134475,1814
1750241548.0135353,1677
1750241548.0136232,1286
1750241548.0137107,1051
1750241548.013799,1408
1750241548.0138888,2181
1750241548.0139775,2702
1750241548.014066,2636
1750241548.0141532,2211
1750241548.0142412,1891
1750241548.01433,1810
1750241548.0144155,1709
1750241548.0145018,1346
1750241548.0145943,1040
1750241548.014681,1276
1750241548.0147688,2010
1750241548.0148559,2608
1750241548.0149424,2643
1750241548.015035,2258
1750241548.0866425,1904
1750241548.1084113,1781
1750241548.1851532,1691
1750241548.208548,1358
1750241548.2099504,1030
1750241548.210741,1225
1750241548.2117894,1995
1750241548.2123117,2708
1750241548.2124522,2827
1750241548.2139769,2428
1750241548.2141235,1999
1750241548.2166252,1845
1750241548.2170057,1817
1750241548.217531,1555
1750241548.2218568,1140
1750241548.222338,1095
1750241548.2224867,1658
1750241548.222634,2377
1750241548.222741,2668
1750241548.2228467,2437
1750241548.2229612,2023
1750241548.2230802,1772
1750241548.2231853,1688
1750241548.2232916,1505
1750241548.2233968,1178
1750241548.2235034,1092
1750241548.2236094,1506
1750241548.2237139,2138
1750241548.2238185,2485
1750241548.2239234,2387
1750241548.2240307,2035
1750241548.2241216,1727
1750241548.224194,1561
1750241548.2242668,1401
1750241548.2243395,1160
1750241548.2244112,1096
1750241548.2244833,1437
1750241548.2245555,2006
1750241548.2246275,2373
1750241548.2246997,2358
1750241548.2247713,2068
1750241548.224843,1751
1750241548.2249146,1531
1750241548.2249813,1355
1750241548.2250633,1132
1750241548.2251353,1065
1750241548.2252073,1379
1750241548.2252796,1962
1750241548.225351,2390
1750241548.2254229,2438
1750241548.2254944,2178
1750241548.2255638,1855
1750241548.2256243,1613
1750241548.2256944,1423
1750241548.225766,1168
1750241548.2260237,1024
1750241548.2260954,1269
1750241548.2261667,1872
1750241548.2262378,2394
1750241548.2263086,2521
1750241548.2263799,2288
1750241548.2264507,1957
1750241548.226522,1709
1750241548.2265935,1516
1750241548.2266655,1232
1750241548.2267373,1003
1750241548.2268095,1190
1750241548.2268806,1840
1750241548.226959,2491
1750241548.2270303,2702
1750241548.227101,2461
1750241548.2271724,2079
1750241548.2272434,1823
1750241548.2273147,1674
1750241548.2899027,1409
1750241548.2910833,1075
1750241548.2911708,1079
1750241548.2912476,1617
1750241548.2913241,2316
1750241548.294805,2654
1750241548.2950191,2510
1750241548.2951052,2146
1750241548.2952979,1874
1750241548.2953715,1723
1750241548.295446,1476
1750241548.29552,1119
1750241548.31753,1063
1750241548.3858702,1582
1750241548.4536762,2353
1750241548.4620628,2771
1750241548.4621577,2636
1750241548.4643307,2221
1750241548.4645202,1921
1750241548.464669,1804
1750241548.4648275,1615
1750241548.4649055,1226
1750241548.4649704,1041
1750241548.4650517,1459
1750241548.4654877,2276
1750241548.4664752,2817
1750241548.4665527,2752
1750241548.466627,2310
1750241548.466836,1965
1750241548.466963,1858
1750241548.4678748,1739
1750241548.4680016,1367
1750241548.4681246,1061
1750241548.468247,1307
1750241548.4683914,2066
1750241548.468517,2703
1750241548.46864,2777
1750241548.4687788,2397
1750241548.4689014,2005
1750241548.469217,1834
1750241548.4693193,1742
1750241548.469398,1452
1750241548.4694707,1118
1750241548.4697723,1175
1750241548.4708352,1724
1750241548.4718711,2310
1750241548.4728293,2502
1750241548.477239,2278
1750241548.485708,1922
1750241548.4965382,1673
1750241548.4966357,1532
1750241548.496998,1318
1750241548.5058782,1098
1750241548.506007,1198
1750241548.5698762,1723
1750241548.5766728,2299
1750241548.5768619,2515
1750241548.5770144,2331
1750241548.5786235,1983
1750241548.580006,1717
1750241548.6518347,1560
1750241548.7168608,1346
1750241548.7192607,1096
1750241548.7196565,1156
1750241548.7200348,1700
1750241548.7204099,2377
1750241548.7207854,2681
1750241548.7211134,2507
1750241548.7214048,2124
1750241548.7217987,1859
1750241548.722173,1731
1750241548.7225506,1509
1750241548.7229235,1146
1750241548.7232969,1067
1750241548.7236698,1592
1750241548.7240434,2416
1750241548.724416,2879
1750241548.7247934,2742
1750241548.7520967,2304
1750241548.7549424,2011
1750241548.7550359,1929
1750241548.7648466,1759
1750241548.7857392,1322
1750241548.7891989,1029
1750241548.832416,1362
1750241548.8596935,2184
1750241548.8597858,2802
1750241548.85987,2812
1750241548.8599546,2397
1750241548.8600397,2032
1750241548.860127,1905
1750241548.8602111,1805
1750241548.8607013,1460
1750241548.8607829,1115
1750241548.8608677,1240
1750241548.860947,1873
1750241548.8610265,2470
1750241548.861111,2600
1750241548.8611956,2304
1750241548.8613114,1942
1750241548.8621159,1740
1750241548.8624597,1621
1750241548.862579,1358
1750241548.862671,1094
1750241548.862758,1236
1750241548.862867,1868
1750241548.862952,2504
1750241548.863037,2678
1750241548.863443,2395
1750241548.863675,1998
1750241548.8637846,1763
1750241548.8638704,1653
1750241548.863956,1425
1750241548.864056,1133
1750241548.864153,1191
1750241548.8643382,1778
1750241548.8651786,2481
1750241548.8652656,2765
1750241548.8653483,2543
1750241548.865431,2128
1750241548.8707163,1857
1750241548.871378,1751
1750241548.8717704,1562
1750241548.8718529,1222
1750241548.871929,1096
1750241548.8955078,1469
1750241548.9891176,2104
1750241548.9989173,2494
1750241548.9993398,2444
1750241548.9994574,2116
1750241548.9995718,1808
1750241548.9996958,1624
1750241548.9998066,1439
1750241549.0006244,1162
1750241549.0007365,1069
1750241549.0008492,1422
1750241549.0009606,2051
1750241549.0010712,2472
1750241549.0011828,2462
1750241549.0012941,2145
1750241549.001404,1817
1750241549.001515,1613
1750241549.0016272,1438
1750241549.0058777,1168
1750241549.0059674,1045
1750241549.006046,1376
1750241549.0061283,2061
1750241549.006206,2579
1750241549.0062838,2621
1750241549.006362,2302
1750241549.006439,1971
1750241549.0065205,1792
1750241549.006599,1639
1750241549.0066755,1314
1750241549.006752,1047
1750241549.0068293,1270
1750241549.0069065,1999
1750241549.0069892,2666
1750241549.0070667,2805
1750241549.007144,2473
1750241549.0072205,2087
1750241549.0072992,1907
1750241549.0073767,1803
1750241549.007456,1486
1750241549.007552,1103
1750241549.0076582,1171
1750241549.0077353,1859
1750241549.0178537,2636
1750241549.0179763,2900
1750241549.0181565,2602
1750241549.0182638,2165
1750241549.0183842,1947
1750241549.0184917,1873
1750241549.018936,1605
1750241549.0190697,1171
1750241549.0191777,1103
1750241549.0192838,1699
1750241549.0194056,2529
1750241549.0195107,2907
1750241549.0196166,2673
1750241549.0197248,2206
1750241549.0198438,1939
1750241549.019963,1873
1750241549.0200686,1671
1750241549.0201757,1244
1750241549.0202818,1074
1750241549.020388,1558
1750241549.0210226,2398
1750241549.0211341,2882
1750241549.0550964,2738
1750241549.0745897,2269
1750241549.0746813,1952
1750241549.07476,1878
1750241549.0755043,1745
1750241549.1000245,1346
1750241549.1052833,1065
1750241549.1064825,1364
1750241549.1068375,2123
1750241549.1071858,2686
1750241549.1075284,2676
1750241549.1078777,2264
1750241549.1082094,1902
1750241549.1085675,1771
1750241549.1088994,1674
1750241549.1092286,1364
1750241549.1100278,1100
1750241549.1103868,1331
1750241549.1107492,2045
1750241549.111119,2652
1750241549.1720452,2724
1750241549.2155602,2358
1750241549.2156582,1977
1750241549.215744,1808
1750241549.2158277,1713
1750241549.2159119,1419
1750241549.2160053,1097
1750241549.2164154,1217
1750241549.2165,1884
1750241549.216584,2575
1750241549.2166674,2777
1750241549.2167509,2484
1750241549.2168334,2077
1750241549.216917,1857
1750241549.216988,1772
1750241549.217069,1538
1750241549.217152,1189
1750241549.217235,1156
1750241549.2173188,1652
1750241549.2174015,2303
1750241549.217485,2589
1750241549.2175634,2405
1750241549.2176328,2024
1750241549.2177162,1759
1750241549.2178,1639
1750241549.217885,1440
1750241549.2179682,1132
1750241549.2180564,1098
1750241549.2181444,1587
1750241549.2182279,2287
1750241549.2183108,2643
1750241549.2196524,2498
1750241549.2197573,2106
1750241549.2198606,1818
1750241549.2199526,1685
1750241549.2200449,1484
1750241549.2201364,1133
1750241549.2202275,1031
1750241549.2203193,1514
1750241549.2204127,2325
1750241549.2205048,2812
1750241549.2205968,2704
1750241549.220688,2261
1750241549.2207794,1934
1750241549.220876,1830
1750241549.2209537,1687
1750241549.2210455,1295
1750241549.2211378,999
1750241549.2212806,1264
1750241549.223087,2010
1750241549.2231765,2605
1750241549.2232618,2648
1750241549.2233467,2283
1750241549.2234313,1944
1750241549.2235157,1808
1750241549.2235994,1677
1750241549.2236834,1315
1750241549.2237675,1000
1750241549.223853,1227
1750241549.2239373,2001
1750241549.224022,2688
1750241549.2241063,2787
1750241549.2241905,2399
1750241549.2242744,2000
1750241549.224358,1852
1750241549.224442,1781
1750241549.2245262,1461
1750241549.2246103,1060
1750241549.2246943,1133
1750241549.224778,1845
1750241549.2248619,2625
1750241549.224946,2852
1750241549.2250404,2511
1750241549.2251265,2063
1750241549.2252104,1868
1750241549.225294,1824
1750241549.2333965,1568
1750241549.2334783,1133
1750241549.2335577,1059
1750241549.2336597,1642
1750241549.2337394,2447
1750241549.2338185,2808
1750241549.2338974,2578
1750241549.2339773,2122
1750241549.2340565,1858
1750241549.2341502,1801
1750241549.2342298,1633
1750241549.234309,1243
1750241549.2343879,1045
1750241549.2344663,1400
1750241549.234566,2080
1750241549.2346456,2502
1750241549.2347243,2431
1750241549.2348037,2067
1750241549.2348828,1766
1750241549.2354488,1627
1750241549.2355275,1465
1750241549.2356155,1162
1750241549.2356915,1045
1750241549.2357676,1447
1750241549.235844,2188
1750241549.23592,2675
1750241549.235996,2621
1750241549.2360728,2217
1750241549.2361493,1864
1750241549.2362256,1708
1750241549.236302,1576
1750241549.2363784,1264
1750241549.236455,1038
1750241549.2365322,1310
1750241549.2366087,2032
1750241549.2366853,2628
1750241549.2367613,2701
1750241549.2368376,2351
1750241549.2369137,1984
1750241549.2369895,1814
1750241549.2370658,1704
1750241549.2371416,1394
1750241549.237217,1056
1750241549.2372928,1140
1750241549.2373683,1743
1750241549.2374442,2375
1750241549.2375202,2564
1750241549.269039,2310
1750241549.2691567,1954
1750241549.2692645,1743
1750241549.2693696,1609
1750241549.2694743,1325
1750241549.2696714,1016
1750241549.2697778,1141
1750241549.2698824,1841
1750241549.2699873,2606
1750241549.270092,2862
1750241549.2715418,2566
1750241549.2716248,2116
1750241549.2718112,1873
1750241549.2718942,1797
1750241549.2719703,1575
1750241549.272046,1180
1750241549.272122,1069
1750241549.2721987,1545
1750241549.2722743,2277
1750241549.2723503,2664
1750241549.2724261,2529
1750241549.272502,2144
1750241549.2725775,1877
1750241549.2726536,1766
1750241549.272734,1562
1750241549.2728114,1184
1750241549.272888,1037
1750241549.2729537,1462
1750241549.2730207,2211
1750241549.2730966,2663
1750241549.2731721,2571
1750241549.2732487,2173
1750241549.2733278,1868
1750241549.2734041,1743
1750241549.2734802,1570
1750241549.2735498,1202
1750241549.2736185,1012
1750241549.2736943,1415
1750241549.274221,2248
1750241549.2743318,2832
1750241549.274409,2797
1750241549.2744853,2355
1750241549.2745616,1987
1750241549.274637,1869
1750241549.2747123,1773
1750241549.2747881,1418
1750241549.274878,1061
1750241549.2749646,1200
1750241549.27506,1883
1750241549.2751343,2538
1750241549.2752004,2688
1750241549.2752755,2375
1750241549.275352,1993
1750241549.2754276,1795
1750241549.2755032,1688
1750241549.2755783,1415
1750241549.2756531,1091
1750241549.2757285,1145
1750241549.275804,1707
1750241549.2758794,2333
1750241549.2759552,2552
1750241549.2760305,2329
1750241549.2761056,1960
1750241549.276181,1713
1750241549.276258,1579
1750241549.276335,1346
1750241549.2764115,1065
1750241549.2764869,1134
1750241549.276562,1717
1750241549.276638,2412
1750241549.276714,2692
1750241549.2767892,2479
1750241549.2768736,2086
1750241549.2769427,1835
1750241549.277003,1718
1750241549.2770832,1482
1750241549.277167,1112
1750241549.27725,1058
1750241549.277325,1612
1750241549.2774,2420
1750241549.277475,2835
1750241549.2775507,2664
1750241549.277626,2224
1750241549.2777016,1941
1750241549.3229432,1855
1750241549.337104,1671
1750241549.3371966,1251
1750241549.3372748,1015
1750241549.3373528,1386
1750241549.337429,2175
1750241549.337523,2716
1750241549.3375936,2682
1750241549.3376653,2280
1750241549.337742,1944
1750241549.3378313,1810
1750241549.3379133,1669
1750241549.3380892,1315
1750241549.3548715,1034
1750241549.3549533,1251
1750241549.35785,1923
1750241549.361957,2495
1750241549.3620372,2587
1750241549.3621094,2280
1750241549.3621857,1922
1750241549.3622591,1714
1750241549.3623326,1574
1750241549.3624048,1304
1750241549.3624756,1056
1750241549.3625565,1187
1750241549.362632,1742
1750241549.3627038,2282
1750241549.3627782,2435
1750241549.3628502,2212
1750241549.3629298,1881
1750241549.3630047,1645
1750241549.363078,1482
1750241549.3631518,1227
1750241549.3632257,999
1750241549.3633008,1172
1750241549.363369,1828
1750241549.363437,2504
1750241549.3635113,2718
1750241549.363582,2454
1750241549.363651,2053
1750241549.3637214,1809
1750241549.3637924,1689
1750241549.3638628,1439
1750241549.363936,1083
1750241549.3640113,1069
1750241549.3640864,1643
1750241549.3641555,2419
1750241549.3642333,2790
1750241549.3643064,2611
1750241549.3643816,2197
1750241549.3644533,1932
1750241549.3645225,1835
1750241549.3645968,1623
1750241549.3646722,1200
1750241549.3647468,993
1750241549.3648157,1373
1750241549.3648787,2111
1750241549.4205465,2588
1750241549.4559896,2534
1750241549.4563131,2163
1750241549.4564388,1855
1750241549.4573846,1709
1750241549.4581628,1530
1750241549.4583414,1186
1750241549.458535,1022
1750241549.4596648,1410
1750241549.4727564,2184
1750241549.4728837,2725
1750241549.4729862,2707
1750241549.473101,2311
1750241549.4732077,1952
1750241549.4733145,1791
1750241549.4734213,1665
1750241549.4735382,1348
1750241549.4736366,1059
1750241549.473744,1204
1750241549.473851,1802
1750241549.4742353,2361
1750241549.4743419,2501
1750241549.474449,2250
1750241549.4745557,1910
1750241549.4746623,1681
1750241549.4747686,1524
1750241549.4748762,1265
1750241549.474983,1032
1750241549.4751852,1169
1750241549.475297,1735
1750241549.4754093,2306
1750241549.475519,2487
1750241549.4756296,2273
1750241549.4757388,1928
1750241549.4758484,1676
1750241549.4759579,1513
1750241549.476067,1266
1750241549.4761765,1011
1750241549.4966109,1113
1750241549.4967759,1702
1750241549.4968538,2376
1750241549.496925,2644
1750241549.4969873,2443
1750241549.4971106,2065
1750241549.4971857,1808
1750241549.4972596,1671
1750241549.4973338,1429
1750241549.4974093,1076
1750241549.497484,1029
1750241549.497557,1558
1750241549.4976184,2334
1750241549.4976885,2754
1750241549.4977632,2626
1750241549.4978373,2214
1750241549.497911,1906
1750241549.497985,1776
1750241549.4981127,1590
1750241549.4981885,1215
1750241549.4982626,1001
1750241549.4983373,1315
1750241549.4984272,2003
1750241549.4985013,2502
1750241549.4985752,2520
1750241549.4986486,2193
1750241549.498722,1875
1750241549.498796,1701
1750241549.4988694,1525
1750241549.4989421,1198
1750241549.4990146,1004
1750241549.4990916,1316
1750241549.4991643,2037
1750241549.4992368,2590
1750241549.4993079,2621
1750241549.49938,2261
1750241549.499452,1907
1750241549.4995244,1736
1750241549.4995966,1595
1750241549.4996696,1265
1750241549.499742,996
1750241549.4998147,1253
1750241549.499887,2041
1750241549.4999592,2742
1750241549.5000315,2852
1750241549.5001035,2464
1750241549.500176,2051
1750241549.500249,1893
1750241549.500325,1819
1750241549.5003972,1490
1750241549.5004694,1055
1750241549.500542,1080
1750241549.5365481,1765
1750241549.5577,2566
1750241549.5577993,2843
1750241549.5578785,2539
1750241549.5579565,2095
1750241549.558042,1891
1750241549.558119,1841
1750241549.5582201,1583
1750241549.5582974,1130
1750241549.558381,1022
1750241549.558457,1585
1750241549.5585337,2402
1750241549.5586104,2785
1750241549.5586872,2561
1750241549.558764,2100
1750241549.558841,1840
1750241549.5589173,1791
1750241549.5589952,1612
1750241549.559072,1197
1750241549.5591488,1022
1750241549.559225,1489
1750241549.5593016,2315
1750241549.5593777,2792
1750241549.5594542,2644
1750241549.5595303,2169
1750241549.559607,1849
1750241549.5596836,1777
1750241549.5597615,1656
1750241549.559838,1279
1750241549.5599139,1026
1750241549.5599892,1355
1750241549.5984066,2138
1750241549.598589,2710
1750241549.6344123,2691
1750241549.6746554,2265
1750241549.674773,1895
1750241549.674909,1767
1750241549.6764278,1680
1750241549.6772652,1367
1750241549.677384,1059
1750241549.6774907,1203
1750241549.6775975,1834
1750241549.6820433,2420
1750241549.6858475,2543
1750241549.6861956,2242
1750241549.6865366,1868
1750241549.6868763,1655
1750241549.6872177,1536
1750241549.687557,1288
1750241549.687928,1041
1750241549.6882706,1180
1750241549.7131546,1787
1750241549.7132473,2404
1750241549.7133353,2585
1750241549.743974,2319
1750241549.7760563,1923
1750241549.8040364,1673
1750241549.8526,1549
1750241549.8559356,1318
1750241549.8566911,1030
1750241549.8579354,1088
1750241549.8591337,1667
1750241549.873675,2361
1750241549.9007046,2642
1750241549.9130816,2426
1750241549.9398437,2029
1750241549.95195,1777
1750241549.95209,1665
1750241549.95224,1430
1750241549.9523723,1066
1750241549.9525042,1028
1750241549.9526067,1604
1750241549.9527173,2423
1750241549.9528122,2832
1750241549.9529076,2643
1750241549.9530032,2192
1750241549.953114,1913
1750241549.9532092,1840
1750241549.9533076,1657
1750241549.9534018,1226
1750241549.9535112,990
1750241549.9535918,1384
1750241549.9536774,2196
1750241549.9537718,2737
1750241549.9538667,2674
1750241549.9539788,2240
1750241549.954074,1905
1750241549.954168,1802
1750241549.9542623,1675
1750241549.9543562,1302
1750241549.9544666,1017
1750241549.9545605,1290
1750241549.9661243,2048
1750241549.9752223,2649
1750241549.9989493,2680
1750241550.024661,2281
1750241550.0248196,1901
1750241550.0250201,1750
1750241550.0250962,1650
1750241550.025169,1336
1750241550.025243,1033
1750241550.025317,1213
1750241550.0253901,1919
1750241550.025464,2576
1750241550.0255353,2703
1750241550.0255961,2356
1750241550.025666,1956
1750241550.0257397,1767
1750241550.02581,1676
1750241550.0258973,1397
1750241550.0701983,1058
1750241550.0720768,1135
1750241550.0731807,1774
1750241550.0749898,2480
1750241550.0751007,2710
1750241550.0751941,2433
1750241550.0752842,2024
1750241550.0753732,1800
1750241550.0754614,1709
1750241550.0755503,1465
1750241550.0756392,1102
1750241550.0757287,1079
1750241550.0758176,1634
1750241550.0759063,2366
1750241550.0759954,2690
1750241550.0760837,2486
1750241550.076172,2078
1750241550.07626,1825
1750241550.0763483,1726
1750241550.0764365,1507
1750241550.076526,1122
1750241550.0766144,1022
1750241550.076702,1532
1750241550.0767903,2332
1750241550.0770335,2766
1750241550.0771484,2615
1750241550.0772383,2178
1750241550.0773304,1890
1750241550.0774188,1809
1750241550.0775084,1640
1750241550.077596,1230
1750241550.0776842,1003
1750241550.0777724,1402
1750241550.0778604,2238
1750241550.0779486,2804
1750241550.0780382,2740
1750241550.078127,2286
1750241550.0782168,1942
1750241550.0783074,1852
1750241550.0784097,1742
1750241550.0795364,1349
1750241550.0799148,1008
1750241550.0800083,1244
1750241550.0801003,2032
1750241550.080191,2699
1750241550.0847387,2763
1750241550.1232345,2351
1750241550.1251445,1954
1750241550.1253023,1823
1750241550.1254501,1765
1750241550.1297872,1453
1750241550.1299398,1065
1750241550.1300879,1119
1750241550.130254,1752
1750241550.1304002,2430
1750241550.1305459,2621
1750241550.1306918,2319
1750241550.1308382,1918
1750241550.130986,1718
1750241550.1311343,1638
1750241550.1313083,1388
1750241550.1314557,1053
1750241550.1316016,1114
1750241550.131774,1756
1750241550.1321316,2495
1750241550.1322527,2744
1750241550.1323998,2445
1750241550.1325622,2003
1750241550.1327085,1787
1750241550.1328552,1743
1750241550.1331153,1530
1750241550.133262,1130
1750241550.1334422,1047
1750241550.133784,1606
1750241550.134509,2419
1750241550.1348455,2804
1750241550.135206,2581
1750241550.1355405,2121
1750241550.1615522,1867
1750241550.162144,1825
1750241550.162385,1641
1750241550.1624675,1200
1750241550.163239,994
1750241550.1633205,1459
1750241550.1634004,2318
1750241550.163497,2830
1750241550.1635764,2689
1750241550.1636555,2213
1750241550.163731,1912
1750241550.1638098,1875
1750241550.163889,1759
1750241550.1639678,1331
1750241550.1640463,1002
1750241550.164125,1297
1750241550.164203,2112
1750241550.1642814,2727
1750241550.1643612,2710
1750241550.1644392,2262
1750241550.164518,1897
1750241550.1645968,1800
1750241550.1646752,1725
1750241550.1647546,1375
1750241550.1648333,1026
1750241550.1649103,1207
1750241550.1649718,1952
1750241550.1650665,2631
1750241550.165146,2738
1750241550.165225,2351
1750241550.1653037,1932
1750241550.1653821,1767
1750241550.1654615,1729
1750241550.1655364,1489
1750241550.1655996,1128
1750241550.1656792,1103
1750241550.16634,1602
1750241550.1664245,2213
1750241550.1665075,2456
1750241550.1665876,2261
1750241550.1666672,1904
1750241550.1667469,1657
1750241550.1668262,1528
1750241550.1669998,1316
1750241550.1675003,1063
1750241550.1676223,1144
1750241550.167728,1720
1750241550.1678371,2397
1750241550.1679432,2659
1750241550.168048,2434
1750241550.168152,2027
1750241550.1682563,1770
1750241550.168376,1668
1750241550.1684847,1463
1750241550.1685889,1109
1750241550.1686928,1028
1750241550.1767282,1529
1750241550.1768105,2307
1750241550.1768858,2734
1750241550.1769474,2590
1750241550.1770215,2157
1750241550.1770952,1863
1750241550.177169,1777
1750241550.1772435,1616
1750241550.1773174,1220
1750241550.1773994,992
1750241550.1774733,1368
1750241550.1837661,2175
1750241550.1838498,2737
1750241550.1839252,2698
1750241550.1839993,2273
1750241550.1840734,1931
1750241550.1841466,1820
1750241550.1842203,1695
1750241550.1842942,1315
1750241550.1843677,1000
1750241550.184441,1242
1750241550.184514,2007
1750241550.1845872,2653
1750241550.1846602,2729
1750241550.1847332,2348
1750241550.1848068,1963
1750241550.1848798,1808
1750241550.184943,1722
1750241550.1850135,1419
1750241550.1850998,1080
1750241550.1851723,1173
1750241550.1852539,1792
1750241550.185326,2418
1750241550.185399,2579
1750241550.1854708,2292
1750241550.185539,1921
1750241550.1856005,1719
1750241550.1856728,1604
1750241550.1857452,1327
1750241550.1858177,1009
1750241550.1858897,1113
1750241550.185962,1782
1750241550.186034,2514
1750241550.1861064,2745
1750241550.1861782,2444
1750241550.1862504,2007
1750241550.2032428,1783
1750241550.2117624,1715
1750241550.2118502,1487
1750241550.211927,1092
1750241550.2120073,1019
1750241550.2123053,1572
1750241550.2123938,2366
1750241550.2124743,2752
1750241550.2125535,2554
1750241550.2126315,2114
1750241550.2127097,1849
1750241550.21279,1781
1750241550.2128692,1608
1750241550.2129357,1211
1750241550.2130039,1019
1750241550.2130826,1421
1750241550.2131622,2187
1750241550.2132437,2673
1750241550.213324,2600
1750241550.2134023,2190
1750241550.2134812,1859
1750241550.2135594,1733
1750241550.213638,1602
1750241550.2137165,1271
1750241550.2137954,1019
1750241550.2138736,1228
1750241550.2139523,1838
1750241550.2140305,2337
1750241550.2141082,2404
1750241550.2141876,2111
1750241550.2142665,1765
1750241550.2143452,1546
1750241550.2144237,1401
1750241550.214502,1169
1750241550.2145805,1014
1750241550.2146585,1238
1750241550.2147436,1829
1750241550.2148108,2345
1750241550.2148855,2457
1750241550.2149642,2198
1750241550.2151775,1842
1750241550.215265,1593
1750241550.2153451,1432
1750241550.2154245,1192
1750241550.2155035,990
1750241550.215582,1168
1750241550.2156613,1790
1750241550.2157397,2419
1750241550.2158184,2623
1750241550.2158976,2383
1750241550.215976,2007
1750241550.2160547,1764
1750241550.216134,1629
1750241550.2162125,1371
1750241550.2162914,1044
1750241550.2163703,1079
1750241550.216449,1677
1750241550.2165275,2427
1750241550.2166092,2758
1750241550.2166932,2553
1750241550.2167614,2139
1750241550.2168372,1874
1750241550.2169118,1759
1750241550.2169755,1512
1750241550.2170556,1105
1750241550.2171338,1011
1750241550.2172127,1558
1750241550.2172904,2402
1750241550.2173712,2861
1750241550.2174497,2706
1750241550.217526,2252
1750241550.2175896,1954
1750241550.2176688,1871
1750241550.2177472,1693
1750241550.217826,1259
1750241550.2179043,990
1750241550.217983,1334
1750241550.218061,2122
1750241550.21814,2680
1750241550.218218,2654
1750241550.2182972,2242
1750241550.2183917,1893
1750241550.2190664,1762
1750241550.219147,1636
1750241550.2192254,1293
1750241550.2193034,1033
1750241550.2193813,1299
1750241550.2194595,2035
1750241550.2195382,2634
1750241550.2196162,2690
1750241550.2196946,2316
1750241550.2197728,1930
1750241550.2198505,1749
1750241550.2199285,1647
1750241550.2200072,1371
1750241550.2200851,1079
1750241550.2201633,1189
1750241550.2202423,1779
1750241550.2203205,2382
1750241550.2203994,2567
1750241550.2204783,2323
1750241550.2205565,1953
1750241550.2206395,1704
1750241550.2207067,1570
1750241550.2207768,1352
1750241550.2208405,1098
1750241550.220902,1146
1750241550.22097,1624
1750241550.2210374,2185
1750241550.2211134,2424
1750241550.221192,2273
1750241550.2212706,1941
1750241550.2213497,1665
1750241550.2246642,1490
1750241550.2272775,1271
1750241550.2275026,1035
1750241550.2276926,1116
1750241550.2277763,1667
1750241550.2278566,2338
1750241550.2279363,2634
1750241550.2280147,2460
1750241550.2280939,2080
1750241550.2281723,1805
1750241550.228251,1658
1750241550.2283294,1425
1750241550.2284253,1074
1750241550.2285125,1024
1750241550.228592,1577
1750241550.228671,2419
1750241550.2287495,2893
1750241550.2288287,2762
1750241550.228906,2315
1750241550.228967,2002
1750241550.2290413,1905
1750241550.2291489,1741
1750241550.2292275,1320
1750241550.2293055,1013
1750241550.2293835,1277
1750241550.2294624,2012
1750241550.2295346,2591
1750241550.2295954,2641
1750241550.2296748,2300
1750241550.229753,1972
1750241550.2298317,1816
1750241550.2299097,1660
1750241550.229988,1299
1750241550.230066,1016
1750241550.230144,1255
1750241550.2302222,1988
1750241550.2303007,2613
1750241550.2303793,2695
1750241550.230467,2335
1750241550.2307525,1956
1750241550.2308314,1784
1750241550.2309113,1679
1750241550.23099,1375
1750241550.2310684,1055
1750241550.231148,1203
1750241550.231226,1911
1750241550.2313046,2616
1750241550.2313828,2786
1750241550.2314608,2448
1750241550.2315392,2032
1750241550.2316175,1841
1750241550.2317107,1769
1750241550.2317936,1506
1750241550.2318723,1125
1750241550.2319505,1127
1750241550.232029,1731
1750241550.232108,2486
1750241550.2321863,2795
1750241550.232266,2562
1750241550.2323496,2137
1750241550.232432,1882
1750241550.2571054,1801
1750241550.2720857,1608
1750241550.282739,1231
1750241550.2830899,1064
1750241550.2834275,1411
1750241550.2837667,2034
1750241550.2841022,2412
1750241550.2844372,2352
1750241550.284774,2027
1750241550.285124,1737
1750241550.2854657,1565
1750241550.2858026,1367
1750241550.28614,1082
1750241550.28648,1045
1750241550.2868366,1530
1750241550.2871845,2288
1750241550.2885475,2730
1750241550.2889388,2621
1750241550.2892778,2195
1750241550.2896185,1863
1750241550.2899585,1737
1750241550.2903042,1597
1750241550.290647,1249
1750241550.29099,1014
1750241550.2927096,1328
1750241550.3365378,2104
1750241550.3369544,2709
1750241550.3400114,2738
1750241550.3404188,2343
1750241550.3407543,1979
1750241550.3410916,1846
1750241550.3414297,1743
1750241550.341792,1392
1750241550.342138,1027
1750241550.3424802,1152
1750241550.3428218,1841
1750241550.3431633,2522
1750241550.3435025,2691
1750241550.34385,2374
1750241550.3441913,1978
1750241550.3445404,1781
1750241550.3448794,1686
1750241550.3452516,1409
1750241550.3526375,1061
1750241550.387021,1111
