1749976393.2718718,2306
1749976393.3060057,2054
1749976393.3061655,1771
1749976393.312359,1527
1749976393.3654678,1322
1749976393.3655887,1241
1749976393.3656616,1427
1749976393.365733,1847
1749976393.365804,2244
1749976393.3658748,2411
1749976393.365945,2334
1749976393.3660154,2095
1749976393.3660862,1810
1749976393.3661563,1556
1749976393.3662267,1344
1749976393.3662965,1229
1749976393.3663669,1362
1749976393.3664372,1748
1749976393.3665078,2164
1749976393.3728316,2373
1749976393.3790576,2337
1749976393.379388,2121
1749976393.3798013,1842
1749976393.380167,1583
1749976393.3813667,1369
1749976393.3833628,1231
1749976393.3839722,1320
1749976393.3841376,1675
1749976393.3842473,2110
1749976393.384354,2364
1749976393.3844597,2370
1749976393.3845658,2175
1749976393.3846714,1899
1749976393.4020863,1630
1749976393.4039695,1410
1749976393.4071426,1251
1749976393.409625,1294
1749976393.4097016,1610
1749976393.409776,2055
1749976393.4100928,2353
1749976393.4101822,2403
1749976393.414904,2236
1749976393.4168286,1964
1749976393.4193242,1680
1749976393.4194334,1443
1749976393.4195378,1263
1749976393.4196405,1263
1749976393.4197435,1542
1749976393.4241495,1993
1749976393.4274223,2335
1749976393.427565,2431
1749976393.4276705,2299
1749976393.4277751,2041
1749976393.428151,1755
1749976393.4285476,1507
1749976393.4286342,1306
1749976393.4290013,1255
1749976393.429079,1481
1749976393.4291484,1918
1749976393.4292235,2297
1749976393.4292898,2439
1749976393.4293618,2340
1749976393.4294305,2091
1749976393.4294982,1799
1749976393.429571,1543
1749976393.4296377,1334
1749976393.4297042,1245
1749976393.4297721,1416
1749976393.429839,1822
1749976393.4299085,2222
1749976393.4299755,2405
1749976393.4300475,2348
1749976393.4301116,2117
1749976393.4301724,1825
1749976393.4302387,1554
1749976393.430313,1336
1749976393.430392,1221
1749976393.4304645,1353
1749976393.4305282,1742
1749976393.4310613,2174
1749976393.4316313,2406
1749976393.4325247,2391
1749976393.435689,2181
1749976393.4360669,1891
1749976393.43646,1612
1749976393.4368463,1386
1749976393.4372246,1241
1749976393.4375994,1315
1749976393.437984,1651
1749976393.438341,2082
1749976393.4386408,2351
1749976393.4522812,2381
1749976393.4557161,2204
1749976393.4659173,1925
1749976393.4660583,1636
1749976393.466132,1399
1749976393.466271,1232
1749976393.4666426,1267
1749976393.4667182,1574
1749976393.4675906,2019
1749976393.4676642,2332
1749976393.4677372,2403
1749976393.4678142,2251
1749976393.4678853,1981
1749976393.4679575,1689
1749976393.4680302,1443
1749976393.4681017,1259
1749976393.4681737,1251
1749976393.468247,1521
1749976393.4683197,1973
1749976393.4683907,2330
1749976393.4688385,2441
1749976393.4690664,2318
1749976393.4694393,2059
1749976393.4695117,1767
1749976393.4695835,1514
1749976393.4696553,1309
1749976393.4697278,1244
1749976393.4698136,1454
1749976393.4698873,1888
1749976393.469959,2282
1749976393.47003,2441
1749976393.4701018,2353
1749976393.4702778,2104
1749976393.470352,1806
1749976393.4704237,1544
1749976393.4704957,1331
1749976393.470566,1233
1749976393.470638,1394
1749976393.47071,1803
1749976393.4707818,2225
1749976393.4708533,2431
1749976393.4709256,2390
1749976393.4711401,2167
1749976393.4712136,1878
1749976393.471286,1607
1749976393.4713583,1382
1749976393.4714303,1247
1749976393.471502,1355
1749976393.4715736,1734
1749976393.4716449,2178
1749976393.471717,2426
1749976393.4717932,2419
1749976393.4718654,2211
1749976393.4719372,1927
1749976393.4720087,1653
1749976393.472091,1426
1749976393.4721634,1267
1749976393.472236,1328
1749976393.4723074,1674
1749976393.472379,2140
1749976393.4724505,2441
1749976393.4725223,2478
1749976393.4725935,2294
1749976393.4726658,2014
1749976393.4727376,1733
1749976393.4728093,1497
1749976393.472872,1309
1749976393.4729438,1303
1749976393.473015,1585
1749976393.4743361,2041
1749976393.4744148,2384
1749976393.474489,2472
1749976393.4745605,2322
1749976393.474633,2047
1749976393.474706,1756
1749976393.4747722,1516
1749976393.47484,1326
1749976393.4749072,1286
1749976393.4751172,1518
1749976393.4751916,1951
1749976393.475262,2319
1749976393.4753337,2452
1749976393.475419,2344
1749976393.4754922,2084
1749976393.4755633,1783
1749976393.4756353,1526
1749976393.4757118,1325
1749976393.4757779,1257
1749976393.475846,1450
1749976393.4759154,1864
1749976393.4759831,2254
1749976393.47605,2424
1749976393.476118,2354
1749976393.4761858,2116
1749976393.476253,1820
1749976393.4763215,1549
1749976393.4763885,1329
1749976393.4764552,1222
1749976393.4765277,1376
1749976393.4766004,1786
1749976393.476672,2221
1749976393.4767444,2436
1749976393.476804,2395
1749976393.4768763,2173
1749976393.4769485,1894
1749976393.4770215,1627
1749976393.4770942,1390
1749976393.477166,1228
1749976393.477238,1330
1749976393.4773052,1747
1749976393.4773743,2256
1749976393.4774456,2535
1749976393.4775174,2507
1749976393.4775891,2272
1749976393.4776664,1998
1749976393.4777365,1752
1749976393.4778085,1519
1749976393.4778807,1303
1749976393.4779532,1305
1749976393.478026,1657
1749976393.4781013,2187
1749976393.4790952,2536
1749976393.4828045,2562
1749976393.48288,2345
1749976393.482953,2069
1749976393.483026,1825
1749976393.483099,1605
1749976393.4831717,1375
1749976393.483244,1295
1749976393.483315,1533
1749976393.4833877,2002
1749976393.4834595,2381
1749976393.483539,2484
1749976393.4836118,2332
1749976393.4836838,2061
1749976393.4837558,1786
1749976393.4838274,1557
1749976393.4838994,1357
1749976393.4839718,1292
1749976393.484044,1508
1749976393.484116,1946
1749976393.484188,2322
1749976393.4842598,2446
1749976393.484332,2327
1749976393.4844036,2073
1749976393.4844766,1794
1749976393.484627,1553
1749976393.484701,1350
1749976393.484774,1266
1749976393.484847,1461
1749976393.48492,1905
1749976393.484992,2329
1749976393.485065,2500
1749976393.4851382,2408
1749976393.4852102,2160
1749976393.485282,1882
1749976393.4853544,1636
1749976393.485444,1418
1749976393.4855273,1274
1749976393.4855986,1378
1749976393.4856699,1759
1749976393.4857414,2200
1749976393.4858112,2434
1749976393.485882,2410
1749976393.4859536,2194
1749976393.4860249,1916
1749976393.486096,1653
1749976393.4897466,1429
1749976393.489829,1267
1749976393.4899023,1331
1749976393.4899752,1682
1749976393.4904537,2140
1749976393.490585,2419
1749976393.4906576,2433
1749976393.4907293,2233
1749976393.491132,1954
1749976393.4912102,1685
1749976393.4912832,1455
1749976393.4913552,1271
1749976393.4914346,1287
1749976393.491507,1605
1749976393.4915786,2083
1749976393.4916503,2408
1749976393.4917219,2451
1749976393.491794,2269
1749976393.491866,2007
1749976393.4919386,1751
1749976393.4920118,1515
1749976393.492104,1290
1749976393.4921765,1243
1749976393.4922485,1540
1749976393.4923203,2074
1749976393.4923925,2487
1749976393.492464,2573
1749976393.4925783,2383
1749976393.4927106,2103
1749976393.492828,1859
1749976393.4929411,1654
1749976393.4930992,1426
1749976393.4932487,1283
1749976393.494282,1434
1749976393.4953,1872
1749976393.4954224,2298
1749976393.4955277,2463
1749976393.495633,2355
1749976393.4957385,2101
1749976393.495844,1835
1749976393.4959478,1601
1749976393.4960513,1376
1749976393.4961548,1245
1749976393.4962587,1411
1749976393.49695,1874
1749976393.497054,2342
1749976393.497157,2529
1749976393.4972608,2424
1749976393.5072737,2169
1749976393.5094538,1916
1749976393.5756145,1697
1749976393.5983365,1467
1749976393.5984154,1277
1749976393.5984817,1363
1749976393.5985494,1797
1749976393.598615,2318
1749976393.5986814,2573
1749976393.5987532,2499
1749976393.598821,2242
1749976393.5988872,1995
1749976393.5990574,1799
1749976393.6188526,1584
1749976393.6189275,1346
1749976393.6189904,1323
1749976393.6190584,1668
1749976393.6191247,2193
1749976393.6191976,2514
1749976393.619264,2498
1749976393.61933,2258
1749976393.6193986,1999
1749976393.6439195,1794
1749976393.6656349,1590
1749976393.6719477,1352
1749976393.6735868,1291
1749976393.673664,1600
1749976393.6737325,2143
1749976393.6738021,2524
1749976393.675659,2552
1749976393.6757662,2319
1749976393.6758857,2047
1749976393.6760259,1841
1749976393.6761453,1661
1749976393.6762602,1430
1749976393.6763775,1296
1749976393.676476,1488
1749976393.6766455,1962
1749976393.676714,2375
1749976393.676962,2483
1749976393.677297,2312
1749976393.6778893,2035
1749976393.6781907,1790
1749976393.6782584,1594
1749976393.6787534,1386
1749976393.6788218,1256
1749976393.6788874,1410
1749976393.6789465,1849
1749976393.679012,2281
1749976393.6790788,2444
1749976393.6791458,2329
1749976393.6792126,2069
1749976393.6796098,1810
1749976393.679683,1597
1749976393.6797502,1392
1749976393.6798172,1252
1749976393.6798844,1382
1749976393.6799514,1816
1749976393.6800246,2285
1749976393.6800914,2488
1749976393.6801655,2393
1749976393.680232,2140
1749976393.6802974,1888
1749976393.6803634,1675
1749976393.680429,1451
1749976393.6804953,1248
1749976393.6805608,1302
1749976393.6806264,1714
1749976393.6806924,2247
1749976393.6807585,2531
1749976393.6808243,2474
1749976393.6808903,2211
1749976393.6809561,1948
1749976393.6810215,1750
1749976393.6810873,1558
1749976393.6811528,1333
1749976393.6812181,1274
1749976393.6812842,1549
1749976393.6813505,2028
1749976393.6814165,2366
1749976393.681482,2406
1749976393.6815488,2204
1749976393.6816144,1928
1749976393.6816804,1682
1749976393.6817467,1475
1749976393.6818135,1276
1749976393.6818795,1234
1749976393.6819453,1500
1749976393.6820111,1977
1749976393.7039664,2337
1749976393.7553194,2407
1749976393.8619864,2230
1749976393.886464,1960
1749976393.8888192,1708
1749976393.8893118,1495
1749976393.892717,1287
1749976393.8932955,1208
1749976393.893432,1441
1749976393.8935366,1931
1749976393.8937066,2351
1749976393.8938112,2469
1749976393.8943136,2313
1749976393.8947597,2049
1749976393.894866,1809
1749976393.8960238,1604
1749976393.8961961,1376
1749976393.8965294,1221
1749976393.8966608,1371
1749976393.8967938,1842
1749976393.8977895,2321
1749976393.897921,2504
1749976393.898029,2380
1749976393.8981352,2115
1749976393.898238,1875
1749976393.8983405,1676
1749976393.8984632,1445
1749976393.8985655,1239
1749976393.899809,1315
1749976393.899919,1754
1749976393.9000216,2280
1749976393.9001243,2531
1749976393.9002273,2441
1749976393.9003313,2168
1749976393.900448,1914
1749976393.9005497,1721
1749976393.9006515,1513
1749976393.9007528,1283
1749976393.900884,1270
1749976393.9009895,1621
1749976393.9010916,2139
1749976393.9024014,2446
1749976393.9025035,2421
1749976393.903382,2179
1749976393.9034855,1918
1749976393.9143612,1709
1749976393.917228,1509
1749976393.9173634,1287
1749976393.9179966,1250
1749976393.9182541,1569
1749976393.9191434,2101
1749976393.919481,2463
1749976393.9198122,2486
1749976393.92014,2253
1749976393.9204688,1971
1749976393.9207966,1749
1749976393.9348464,1567
1749976393.934922,1358
1749976393.937343,1250
1749976393.9896867,1433
1749976394.014866,1860
1749976394.0439823,2228
1749976394.0441406,2339
1749976394.0442939,2204
1749976394.0444005,1952
1749976394.0445292,1697
1749976394.0450482,1480
1749976394.0451581,1280
1749976394.0452616,1199
1749976394.045414,1408
1749976394.045945,1867
1749976394.046049,2275
1749976394.0461526,2401
1749976394.0462666,2263
1749976394.0479016,2001
1749976394.048016,1747
1749976394.0481346,1532
1749976394.0484183,1318
1749976394.0485277,1181
1749976394.0499783,1336
1749976394.0500858,1804
1749976394.0501926,2292
1749976394.0502987,2491
1749976394.05503,2378
1749976394.0551434,2110
1749976394.0552526,1858
1749976394.055358,1657
1749976394.0557106,1443
1749976394.0558183,1240
1749976394.0559247,1277
1749976394.05603,1656
1749976394.0561364,2156
1749976394.0562418,2435
1749976394.0563474,2402
1749976394.0564537,2162
1749976394.0565596,1893
1749976394.0566678,1664
1749976394.0567746,1449
1749976394.056878,1241
1749976394.0569816,1231
1749976394.0570846,1546
1749976394.0707633,2026
1749976394.1070914,2341
1749976394.1117277,2367
1749976394.1136348,2168
1749976394.1151414,1898
1749976394.1153705,1646
1749976394.1154723,1426
1749976394.1155417,1233
1749976394.1156073,1231
1749976394.115673,1555
1749976394.115739,2065
1749976394.115804,2417
1749976394.1158693,2456
1749976394.1159353,2254
1749976394.1160004,1985
1749976394.116065,1749
1749976394.1395507,1539
1749976394.1588492,1311
1749976394.1589205,1208
1749976394.1667545,1426
1749976394.1668727,1911
1749976394.166978,2326
1749976394.1670825,2444
1749976394.167185,2293
1749976394.167288,2035
1749976394.1673908,1792
1749976394.1674936,1573
1749976394.1675966,1333
1749976394.1676993,1196
1749976394.1678138,1392
1749976394.1679168,1906
1749976394.1680195,2395
1749976394.1681223,2558
1749976394.168225,2404
1749976394.1683283,2120
1749976394.168431,1876
1749976394.168534,1685
1749976394.1686373,1464
1749976394.1687498,1263
1749976394.1688535,1328
1749976394.1689565,1740
1749976394.1690593,2237
1749976394.1691625,2481
1749976394.1692655,2407
1749976394.1693685,2147
1749976394.1694715,1884
1749976394.1695743,1672
1749976394.1696765,1459
1749976394.1697917,1255
1749976394.1698945,1286
1749976394.1699963,1663
1749976394.1700995,2176
1749976394.1702023,2467
1749976394.1703618,2431
1749976394.170466,2181
1749976394.192385,1912
1749976394.2046044,1695
1749976394.2199836,1491
1749976394.227983,1279
1749976394.2280614,1274
1749976394.2281337,1628
1749976394.2282825,2173
1749976394.2283585,2519
1749976394.228431,2512
1749976394.2287774,2265
1749976394.2290173,1998
1749976394.2290895,1793
1749976394.2291563,1594
1749976394.2292237,1344
1749976394.2292902,1243
1749976394.2293556,1515
1749976394.2294278,2059
1749976394.2294948,2475
1749976394.2295606,2534
1749976394.2296283,2317
1749976394.2296941,2047
1749976394.2297595,1839
1749976394.2298274,1646
1749976394.2298965,1391
1749976394.2299626,1236
1749976394.2300289,1442
1749976394.2300935,1971
1749976394.230156,2439
1749976394.2302213,2558
1749976394.2302868,2370
1749976394.2303522,2092
1749976394.2304184,1873
1749976394.2304845,1690
1749976394.2305505,1455
1749976394.2306159,1269
1749976394.2306888,1402
1749976394.230754,1886
1749976394.23082,2387
1749976394.230887,2571
1749976394.230952,2426
1749976394.231018,2138
1749976394.2310846,1890
1749976394.2311492,1705
1749976394.2312145,1499
1749976394.2312803,1297
1749976394.2313457,1327
1749976394.2314112,1683
1749976394.2314773,2143
1749976394.231543,2388
1749976394.2316089,2345
1749976394.2316744,2108
1749976394.2317398,1837
1749976394.2318058,1605
1749976394.2318711,1405
1749976394.2319376,1240
1749976394.2320037,1286
1749976394.2320874,1627
1749976394.2321541,2087
1749976394.2322211,2359
1749976394.2322876,2356
1749976394.232353,2146
1749976394.2324185,1878
1749976394.2324846,1633
1749976394.23255,1425
1749976394.2326148,1245
1749976394.2326882,1255
1749976394.2327538,1575
1749976394.2328186,2063
1749976394.2328842,2390
1749976394.232949,2419
1749976394.2330143,2221
1749976394.2330794,1960
1749976394.233146,1723
1749976394.2332127,1505
1749976394.2332783,1278
1749976394.2333436,1210
1749976394.2334087,1491
1749976394.2334757,2030
1749976394.2335415,2456
1749976394.2336059,2542
1749976394.233672,2341
1749976394.2337368,2058
1749976394.233802,1826
1749976394.2338684,1631
1749976394.2339334,1392
1749976394.2340024,1224
1749976394.2340672,1372
1749976394.2341325,1845
1749976394.2341979,2316
1749976394.2342627,2489
1749976394.2343276,2356
1749976394.234393,2083
1749976394.234458,1829
1749976394.234525,1617
1749976394.2345986,1388
1749976394.2346644,1221
1749976394.2347298,1361
1749976394.234795,1840
1749976394.2348597,2352
1749976394.2349248,2561
1749976394.2349956,2440
1749976394.235072,2157
1749976394.2351475,1900
1749976394.2352233,1700
1749976394.2352982,1483
1749976394.2353725,1268
1749976394.2354617,1296
1749976394.2355382,1674
1749976394.2356133,2178
1749976394.2356904,2457
1749976394.2357657,2417
1749976394.2358446,2171
1749976394.2359207,1905
1749976394.235996,1681
1749976394.2360702,1468
1749976394.2361448,1262
1749976394.2362196,1272
1749976394.2362885,1626
1749976394.2363584,2143
1749976394.2364323,2462
1749976394.2365074,2456
1749976394.2365851,2223
1749976394.236662,1953
1749976394.236737,1728
1749976394.236812,1523
1749976394.3126347,1302
1749976394.3527787,1246
1749976394.3690658,1524
1749976394.4057682,2023
1749976394.4059842,2389
1749976394.4061196,2442
1749976394.418052,2245
1749976394.4181736,1978
1749976394.4182436,1744
1749976394.4183125,1537
1749976394.4207032,1312
1749976394.4208167,1215
1749976394.420899,1446
1749976394.42098,1942
1749976394.421061,2357
1749976394.4211419,2460
1749976394.421255,2290
1749976394.4213367,2023
1749976394.4214199,1785
1749976394.4215007,1576
1749976394.4217207,1342
1749976394.4218187,1201
1749976394.421916,1388
1749976394.4220126,1893
1749976394.422126,2377
1749976394.4222167,2538
1749976394.4222937,2385
1749976394.422391,2105
1749976394.4224975,1865
1749976394.4225938,1667
1749976394.4226902,1430
1749976394.4227865,1223
1749976394.4228828,1311
1749976394.4229717,1767
1749976394.4230626,2294
1749976394.4231586,2532
1749976394.4232543,2426
1749976394.423358,2149
1749976394.423454,1901
1749976394.42355,1710
1749976394.4236462,1491
1749976394.4237423,1256
1749976394.4238384,1265
1749976394.423934,1656
1749976394.4240296,2197
1749976394.424126,2494
1749976394.4242218,2438
1749976394.4243174,2173
1749976394.4244132,1913
1749976394.4245088,1715
1749976394.4246047,1507
1749976394.4247007,1266
1749976394.424796,1230
1749976394.424892,1578
1749976394.424987,2139
1749976394.4250827,2501
1749976394.4251776,2496
1749976394.4275608,2240
1749976394.439242,1966
1749976394.4826665,1768
1749976394.571784,1589
1749976394.572054,1353
1749976394.5721323,1234
1749976394.5722008,1451
1749976394.5722678,1937
1749976394.5723362,2334
1749976394.5724032,2423
1749976394.5724697,2239
1749976394.5725365,1963
1749976394.5726001,1721
1749976394.5726662,1525
1749976394.5727363,1322
1749976394.5728142,1231
1749976394.5728807,1448
1749976394.5729465,1933
1749976394.5730171,2359
1749976394.573083,2483
1749976394.5731494,2325
1749976394.5732152,2047
1749976394.5732808,1793
1749976394.5733464,1593
1749976394.5734117,1389
1749976394.5734782,1248
1749976394.5735447,1376
1749976394.57361,1795
1749976394.5736759,2237
1749976394.573741,2427
1749976394.5738068,2340
1749976394.5738726,2092
1749976394.5739381,1829
1749976394.5740032,1602
1749976394.574068,1384
1749976394.5754673,1223
1749976394.5756373,1323
1749976394.5772853,1733
1749976394.5915747,2209
1749976394.5916448,2438
1749976394.591711,2371
1749976394.59178,2124
1749976394.591852,1862
1749976394.591918,1639
1749976394.5919852,1422
1749976394.5920513,1223
1749976394.592917,1255
1749976394.592988,1630
1749976394.593055,2149
1749976394.5931258,2455
1749976394.593194,2433
1749976394.5932603,2189
1749976394.5933268,1916
1749976394.593393,1692
1749976394.5934606,1483
1749976394.593527,1259
1749976394.5935948,1214
1749976394.5936615,1520
1749976394.5937274,2046
1749976394.5937927,2420
1749976394.5938585,2462
1749976394.5939248,2244
1749976394.5939908,1965
1749976394.5940578,1732
1749976394.594124,1532
1749976394.5941901,1308
1749976394.599575,1210
1749976394.5996554,1438
1749976394.599723,1928
1749976394.5997906,2339
1749976394.5998573,2445
1749976394.5999234,2274
1749976394.5999904,1995
1749976394.6000564,1740
1749976394.6001215,1533
1749976394.60019,1320
1749976394.6002557,1196
1749976394.6003284,1356
1749976394.600398,1791
1749976394.6004686,2214
1749976394.6005397,2376
1749976394.60061,2263
1749976394.610906,2001
1749976394.6109858,1730
1749976394.611046,1507
1749976394.618671,1305
1749976394.618773,1183
1749976394.6188464,1330
1749976394.6189182,1763
1749976394.6197205,2220
1749976394.6197941,2422
1749976394.6198664,2339
1749976394.6199462,2089
1749976394.6200182,1826
1749976394.62009,1596
1749976394.620162,1370
1749976394.6202338,1189
1749976394.620306,1279
1749976394.6203775,1713
1749976394.6204493,2242
1749976394.6205215,2510
1749976394.6205933,2443
1749976394.6206658,2182
1749976394.6207376,1924
1749976394.6208096,1712
1749976394.6208808,1487
1749976394.6219516,1247
1749976394.6220233,1236
1749976394.6221056,1608
1749976394.6221738,2171
1749976394.6222346,2524
1749976394.6223083,2518
1749976394.6223822,2273
1749976394.6224537,2008
1749976394.6225252,1802
1749976394.6225965,1601
1749976394.6226685,1353
1749976394.622741,1255
1749976394.622814,1511
1749976394.622886,2017
1749976394.622957,2403
1749976394.6230226,2470
1749976394.6230938,2277
1749976394.6231656,2007
1749976394.623238,1767
1749976394.6233108,1554
1749976394.6233835,1327
1749976394.623461,1240
1749976394.6235356,1492
1749976394.6236079,2010
1749976394.6236792,2437
1749976394.6237512,2537
1749976394.6238241,2354
1749976394.6239018,2073
1749976394.6239746,1831
1749976394.6240544,1635
1749976394.6241412,1417
1749976394.6242204,1263
1749976394.6243005,1393
1749976394.6243737,1820
1749976394.6244457,2257
1749976394.6245205,2429
1749976394.624595,2320
1749976394.6246676,2066
1749976394.62474,1810
1749976394.6248114,1592
1749976394.6248827,1375
1749976394.624956,1224
1749976394.6250286,1357
1749976394.6251009,1813
1749976394.6251721,2314
1749976394.625244,2533
1749976394.6253164,2432
1749976394.6253881,2162
1749976394.6650128,1903
1749976394.665122,1695
1749976394.6652176,1477
1749976394.6653023,1264
1749976394.6660426,1293
1749976394.6661296,1681
1749976394.6663616,2209
1749976394.6664474,2507
1749976394.6665313,2467
1749976394.6666143,2212
1749976394.6667018,1943
1749976394.666811,1732
1749976394.6668904,1530
1749976394.667091,1305
1749976394.667243,1260
1749976394.667327,1558
1749976394.667414,2057
1749976394.6674972,2402
1749976394.66758,2435
1749976394.6676664,2226
1749976394.667754,1957
1749976394.6678364,1726
1749976394.6679199,1521
1749976394.6680064,1306
1749976394.6680877,1243
1749976394.6681707,1510
1749976394.6682572,2011
1749976394.6683404,2396
1749976394.6684275,2465
1749976394.6685185,2270
1749976394.668601,1995
1749976394.6686838,1755
1749976394.6687768,1549
1749976394.6688602,1326
1749976394.6689415,1220
1749976394.6690242,1450
1749976394.6691117,1969
1749976394.6691942,2423
1749976394.669281,2545
1749976394.6693628,2365
1749976394.6694531,2080
1749976394.6695402,1841
1749976394.669622,1645
1749976394.6697047,1411
1749976394.6697872,1229
1749976394.6698685,1352
1749976394.6699507,1815
1749976394.6700382,2307
1749976394.6701138,2506
1749976394.6703043,2389
1749976394.670392,2123
1749976394.692187,1878
1749976394.6922674,1675
1749976394.6923332,1445
1749976394.6924,1239
1749976394.6924653,1310
1749976394.6925304,1739
1749976394.6925955,2258
1749976394.6926596,2506
1749976394.6927292,2423
1749976394.6927962,2161
1749976394.692861,1911
1749976394.6929255,1711
1749976394.6929896,1493
1749976394.6930535,1267
1749976394.6931179,1282
1749976394.6931818,1675
1749976394.6932454,2226
1749976394.6933105,2539
1749976394.6933749,2494
1749976394.693438,2232
1749976394.693503,1972
1749976394.6935678,1775
1749976394.6936324,1573
1749976394.6962857,1329
1749976394.6963575,1262
1749976394.696423,1569
1749976394.696487,2110
1749976394.696552,2489
1749976394.6966267,2520
1749976394.6966856,2287
1749976394.696744,2007
1749976394.696813,1789
1749976394.6968765,1605
1749976394.6969402,1386
1749976394.697006,1272
1749976394.6970696,1467
1749976394.6971335,1921
1749976394.697198,2311
1749976394.697262,2420
1749976394.6973262,2265
1749976394.6973898,1996
1749976394.6974535,1741
1749976394.6975172,1529
1749976394.6975803,1325
1749976394.6976447,1230
1749976394.6977088,1435
1749976394.697773,1906
1749976394.697837,2334
1749976394.6980698,2468
1749976394.6981282,2322
1749976394.7135272,2054
1749976394.73186,1805
1749976394.8037302,1595
1749976394.8049185,1374
1749976394.805607,1219
1749976394.8059113,1361
1749976394.8059852,1830
1749976394.806058,2328
1749976394.8061306,2531
1749976394.8061922,2412
1749976394.8062565,2136
1749976394.8063283,1887
1749976394.8155456,1693
1749976394.836717,1480
1749976394.8368268,1266
1749976394.8369303,1287
1749976394.837034,1655
1749976394.837136,2152
1749976394.8382888,2433
1749976394.838397,2403
1749976394.8385,2167
1749976394.838603,1904
1749976394.8387074,1681
1749976394.8390973,1469
1749976394.8392015,1265
1749976394.8402412,1275
1749976394.840345,1627
1749976394.8404481,2141
1749976394.8414397,2458
1749976394.8415513,2451
1749976394.841657,2220
1749976394.841761,1952
1749976394.841865,1724
1749976394.8419683,1508
1749976394.842086,1279
1749976394.8430378,1236
1749976394.8431532,1560
1749976394.843257,2116
1749976394.8433604,2507
1749976394.843464,2539
1749976394.8435676,2305
1749976394.8436706,2027
1749976394.8441324,1814
1749976394.8443935,1620
1749976394.8444993,1368
1749976394.8446045,1222
1749976394.84589,1427
1749976394.8459978,1942
1749976394.846202,2391
1749976394.8463113,2507
1749976394.8464165,2324
1749976394.8465211,2045
1749976394.846626,1817
1749976394.8467307,1628
1749976394.846835,1399
1749976394.8470364,1229
1749976394.8471417,1365
1749976394.8472474,1826
1749976394.847352,2298
1749976394.8474572,2479
1749976394.8476639,2354
1749976394.8477712,2081
1749976394.84788,1824
1749976394.8479846,1617
1749976394.848098,1405
1749976394.8511424,1241
1749976394.8512485,1345
1749976394.8513517,1767
1749976394.8514555,2245
1749976394.8515587,2462
1749976394.8516622,2377
1749976394.8517663,2125
1749976394.8518689,1871
1749976394.8519783,1662
1749976394.8520935,1450
1749976394.852196,1249
1749976394.8522992,1280
1749976394.8524015,1649
1749976394.8525045,2146
1749976394.8526795,2422
1749976394.8527834,2375
1749976394.8528857,2111
1749976394.8529878,1816
1749976394.8530898,1567
1749976394.8585498,1337
1749976394.858693,1106
1749976394.8588145,1073
1749976394.858919,1387
1749976394.859119,1895
1749976394.859223,2232
1749976394.8593264,2250
1749976394.8594298,2042
1749976394.859536,1801
1749976394.8596404,1608
1749976394.8692532,1422
1749976394.9123569,1196
1749976394.940198,1120
1749976394.945793,1404
1749976394.945867,1948
1749976394.9710855,2362
1749976394.972261,2422
1749976394.9723685,2208
1749976394.9724452,1940
1749976394.9725215,1735
1749976394.9726002,1554
1749976394.9726753,1318
1749976394.9866996,1177
1749976394.9872851,1383
1749976394.9873729,1906
1749976394.9874563,2375
1749976394.987539,2504
1749976395.0136538,2325
1749976395.0537827,2044
1749976395.0696425,1818
1749976395.0698075,1639
1749976395.0698786,1423
1749976395.0699453,1247
1749976395.0700297,1357
1749976395.100029,1792
1749976395.1001415,2261
1749976395.100246,2461
1749976395.166796,2362
1749976395.1997826,2106
1749976395.2498176,1854
1749976395.2501552,1649
1749976395.250478,1443
1749976395.2507997,1271
1749976395.2511175,1343
1749976395.2999098,1727
1749976395.3004935,2191
1749976395.3042426,2422
1749976395.3043344,2361
1749976395.3044176,2121
1749976395.3048139,1864
1749976395.3068779,1644
1749976395.3070643,1436
1749976395.3071373,1255
1749976395.3072307,1315
1749976395.3073046,1720
1749976395.3073764,2255
1749976395.307448,2555
1749976395.307519,2515
1749976395.3075902,2261
1749976395.307676,1996
1749976395.3077474,1785
1749976395.3078182,1583
1749976395.307889,1350
1749976395.3079593,1281
1749976395.3080297,1552
1749976395.3081162,2042
1749976395.3081868,2398
1749976395.3082583,2446
1749976395.3083289,2249
1749976395.3083997,1978
1749976395.30847,1735
1749976395.3105142,1526
1749976395.31063,1313
1749976395.3108854,1229
1749976395.3335865,1439
1749976395.3337295,1878
1749976395.3364778,2241
1749976395.3391573,2332
1749976395.3392804,2163
1749976395.3393714,1855
1749976395.3394947,1533
1749976395.3413575,1264
1749976395.3415444,1040
1749976395.3416653,942
1749976395.3418202,1117
1749976395.3419442,1532
1749976395.4058406,1930
1749976395.456261,2101
1749976395.456356,2033
1749976395.4564426,1813
1749976395.4565501,1557
1749976395.4566462,1332
1749976395.4567327,1141
1749976395.456818,1044
1749976395.456903,1211
1749976395.4573123,1646
1749976395.4574049,2101
1749976395.4575248,2312
1749976395.457613,2248
1749976395.457701,2013
1749976395.457789,1753
1749976395.4578931,1524
1749976395.457981,1309
1749976395.4580703,1146
1749976395.4581528,1245
1749976395.4582345,1676
1749976395.458356,2204
1749976395.458427,2485
1749976395.458497,2441
1749976395.4585664,2196
1749976395.458636,1934
1749976395.4587054,1713
1749976395.4589443,1490
1749976395.4590175,1257
1749976395.4590898,1239
1749976395.4591603,1586
1749976395.4592314,2132
1749976395.4593027,2497
1749976395.4593732,2527
1749976395.4594443,2303
1749976395.4595234,2024
1749976395.4595938,1793
1749976395.45967,1593
1749976395.4597409,1377
1749976395.4598112,1299
1749976395.4598825,1533
1749976395.4599535,1994
1749976395.4600246,2360
1749976395.4600952,2451
1749976395.4601657,2294
1749976395.460236,2034
1749976395.4603064,1777
1749976395.4603775,1554
1749976395.4604475,1346
1749976395.4605184,1289
1749976395.4605892,1554
1749976395.4606602,2065
1749976395.460731,2483
1749976395.4608014,2585
1749976395.4608722,2410
1749976395.4609425,2133
1749976395.4610128,1886
1749976395.4610834,1679
1749976395.4611535,1453
1749976395.461226,1312
1749976395.4612963,1483
1749976395.4613664,1970
1749976395.4614446,2451
1749976395.461515,2629
1749976395.461586,2497
1749976395.4616559,2229
1749976395.461727,1988
1749976395.4617977,1787
1749976395.4618685,1552
1749976395.461939,1347
1749976395.4620092,1431
1749976395.4703119,1877
1749976395.4704964,2400
1749976395.4893737,2640
1749976395.5461402,2542
1749976395.5494385,2269
1749976395.620531,2018
1749976395.7047951,1818
1749976395.7797818,1593
1749976395.7931485,1357
1749976395.7941525,1366
1749976395.7944877,1754
1749976395.7948093,2296
1749976395.795207,2601
1749976395.79557,2555
1749976395.7959182,2296
1749976395.7962475,2036
1749976395.7965672,1838
1749976395.7968884,1635
1749976395.7972088,1394
1749976395.7975569,1343
1749976395.8016443,1665
1749976395.8020022,2205
1749976395.8539462,2563
1749976395.8625937,2568
1749976395.8644845,2324
1749976395.8645704,2052
1749976395.866273,1845
1749976395.8732467,1655
1749976395.873457,1419
1749976395.8736298,1323
1749976395.8737993,1585
1749976395.8743958,2116
1749976395.8796,2527
1749976395.9354122,2590
1749976395.9356468,2374
1749976395.9361567,2091
1749976395.9362855,1867
1749976395.9426084,1681
1749976395.9428031,1452
1749976395.9428697,1308
1749976395.9429357,1485
1749976395.9430025,1961
1749976395.943066,2402
1749976395.94313,2538
1749976395.9431968,2384
1749976395.9432611,2111
1749976395.9433258,1865
1749976395.9433901,1668
1749976395.9434545,1458
1749976395.9435189,1300
1749976395.9435835,1408
1749976395.9436479,1814
1749976395.943712,2254
1749976395.9437766,2449
1749976395.9438407,2366
1749976395.9444752,2117
1749976395.9445477,1852
1749976395.9446132,1631
1749976395.9446783,1432
1749976395.9447436,1287
1749976395.9448097,1389
1749976395.9448988,1788
1749976395.9449654,2257
1749976395.9468994,2492
1749976395.9472294,2433
1749976395.947296,2189
1749976395.947365,1920
1749976395.9474306,1688
1749976395.9474962,1470
1749976395.9475617,1279
1749976395.9476273,1325
1749976395.947696,1716
1749976395.947761,2250
1749976395.947827,2562
1749976395.9482942,2537
1749976395.9553068,2286
1749976395.9554315,2012
1749976395.9556723,1790
1749976395.9558446,1583
1749976395.9559386,1350
1749976395.9560304,1281
1749976395.95612,1549
1749976395.9562097,2043
1749976395.9562995,2408
1749976395.9563892,2468
1749976395.9564776,2280
1749976395.956567,2016
1749976395.9566545,1774
1749976395.9567413,1556
1749976395.958762,1326
1749976395.9606204,1239
1749976395.9699147,1483
1749976395.9717236,1980
1749976395.9718347,2384
1749976395.9719596,2480
1749976395.9723914,2306
1749976395.9741135,2030
1749976395.9763114,1778
1749976395.9890492,1569
1749976396.0154026,1356
1749976396.0465298,1244
1749976396.0469742,1434
1749976396.0473137,1906
1749976396.0476706,2352
1749976396.0480163,2509
1749976396.04836,2377
1749976396.048705,2106
1749976396.0490847,1843
1749976396.0494406,1629
1749976396.0497844,1415
1749976396.050224,1254
1749976396.0505672,1350
1749976396.0509927,1748
1749976396.051365,2203
1749976396.0997846,2426
1749976396.1125147,2367
1749976396.113231,2126
1749976396.1142428,1856
1749976396.1144543,1621
1749976396.114538,1407
1749976396.114622,1242
1749976396.1147041,1327
1749976396.1147845,1731
1749976396.1148646,2228
1749976396.1149366,2492
1749976396.1149955,2446
1749976396.1150744,2199
1749976396.1151774,1931
1749976396.1156545,1705
1749976396.1157389,1489
1749976396.11582,1279
1749976396.1159222,1285
1749976396.1168003,1643
1749976396.1552114,2179
1749976396.1626651,2519
1749976396.1636784,2520
1749976396.165783,2284
1749976396.1661432,2012
1749976396.1665106,1793
1749976396.166876,1585
1749976396.189499,1344
1749976396.1899223,1260
1749976396.1902792,1532
1749976396.1906443,2056
1749976396.1909893,2456
1749976396.191327,2523
1749976396.1916575,2316
1749976396.1919887,2036
1749976396.2179673,1805
1749976396.2303586,1606
1749976396.234133,1374
1749976396.2342515,1250
1749976396.2343554,1460
1749976396.2344594,1964
1749976396.2345622,2408
1749976396.234665,2529
1749976396.2348146,2352
1749976396.2349179,2067
1749976396.2350197,1823
1749976396.2351217,1625
1749976396.2352238,1401
1749976396.2353258,1251
1749976396.2354517,1420
1749976396.2356403,1917
1749976396.2357433,2408
1749976396.2358453,2579
1749976396.2359476,2431
1749976396.236049,2149
1749976396.2361672,1905
1749976396.2362688,1708
1749976396.2363708,1477
1749976396.2563577,1273
1749976396.2564394,1355
1749976396.2565105,1795
1749976396.2565906,2313
1749976396.2566698,2553
1749976396.2576506,2459
1749976396.2577407,2187
1749976396.2578192,1926
1749976396.2578976,1722
1749976396.257976,1511
1749976396.258055,1296
1749976396.2581332,1295
1749976396.2582111,1629
1749976396.2582896,2110
1749976396.2583678,2401
1749976396.2584472,2395
1749976396.2585247,2175
1749976396.2586021,1907
1749976396.2586803,1668
1749976396.2587745,1455
1749976396.2588518,1264
1749976396.2589283,1279
1749976396.2590046,1623
1749976396.259081,2134
1749976396.2591565,2463
1749976396.2592325,2471
1749976396.2593086,2242
1749976396.2593853,1963
1749976396.259462,1729
1749976396.2595382,1527
1749976396.2596142,1313
1749976396.2596903,1246
1749976396.2597766,1512
1749976396.259853,2022
1749976396.259929,2424
1749976396.2600057,2510
1749976396.2600822,2322
1749976396.2601583,2045
1749976396.2602339,1800
1749976396.2603102,1591
1749976396.2603862,1362
1749976396.2604628,1240
1749976396.2605386,1440
1749976396.2606142,1932
1749976396.2606902,2381
1749976396.2607667,2523
1749976396.260843,2372
1749976396.2609193,2100
1749976396.2609956,1851
1749976396.2610726,1638
1749976396.2611485,1401
1749976396.2612243,1231
1749976396.2613006,1364
1749976396.2613769,1825
1749976396.2614524,2308
1749976396.2615287,2501
1749976396.261605,2384
1749976396.2616882,2118
1749976396.2617643,1869
1749976396.2618406,1661
1749976396.2619166,1434
1749976396.2619927,1239
1749976396.271558,1325
1749976396.2734616,1770
1749976396.292546,2301
1749976396.3155391,2555
1749976396.31935,2465
1749976396.3897173,2191
1749976396.3898368,1934
1749976396.3899174,1736
1749976396.3910215,1522
1749976396.3911695,1289
1749976396.3913133,1279
1749976396.3914697,1640
1749976396.3916128,2176
1749976396.3917563,2499
1749976396.3918998,2478
1749976396.3920434,2231
1749976396.3922086,1968
1749976396.392352,1757
1749976396.3924959,1544
1749976396.3926384,1300
1749976396.3927805,1244
1749976396.3929234,1566
1749976396.3930671,2122
1749976396.3932245,2506
1749976396.3933678,2530
1749976396.3935297,2290
1749976396.393673,2013
1749976396.3938158,1801
1749976396.3939588,1610
1749976396.3940914,1370
1749976396.394234,1251
1749976396.394377,1486
1749976396.3945186,2009
1749976396.3946614,2441
1749976396.3948042,2533
1749976396.3949316,2334
1749976396.3950744,2049
1749976396.3956282,1816
1749976396.395773,1621
1749976396.3959153,1390
1749976396.3960593,1237
1749976396.3962028,1398
1749976396.4334867,1872
1749976396.434584,2333
1749976396.4347296,2495
1749976396.4348037,2355
1749976396.4348755,2077
1749976396.4349463,1819
1749976396.435016,1615
1749976396.435087,1408
1749976396.4351575,1249
1749976396.4352279,1347
1749976396.435298,1744
1749976396.4353676,2191
1749976396.43569,2401
1749976396.43584,2331
1749976396.4359124,2089
1749976396.4364223,1822
1749976396.4371123,1594
1749976396.4372172,1384
1749976396.437325,1226
1749976396.437536,1317
1749976396.4377577,1718
1749976396.44008,2203
1749976396.4401584,2452
1749976396.4402354,2398
1749976396.4403107,2157
1749976396.4403865,1897
1749976396.440462,1673
1749976396.440537,1453
1749976396.4406192,1243
1749976396.4406953,1262
1749976396.440771,1646
1749976396.4408464,2201
1749976396.4409237,2542
1749976396.4410033,2531
1749976396.4410794,2284
1749976396.4411542,2015
1749976396.4412313,1806
1749976396.44131,1603
1749976396.4413855,1354
1749976396.441461,1258
1749976396.4415367,1520
1749976396.4416115,2041
1749976396.441687,2441
1749976396.441763,2509
1749976396.4418383,2307
1749976396.4419136,2035
1749976396.4419897,1806
1749976396.4420793,1602
1749976396.4421961,1364
1749976396.4422565,1240
1749976396.4423335,1455
1749976396.442409,1961
1749976396.4424837,2399
1749976396.4425585,2512
1749976396.4426339,2333
1749976396.4429417,2050
1749976396.443004,1808
1749976396.443066,1612
1749976396.443143,1392
1749976396.4432237,1241
1749976396.4432998,1390
1749976396.4433753,1854
1749976396.4434507,2322
1749976396.4435258,2498
1749976396.4436016,2369
1749976396.443677,2094
1749976396.443752,1840
1749976396.4438264,1636
1749976396.443902,1422
1749976396.4439785,1245
1749976396.444055,1331
1749976396.444132,1746
1749976396.444208,2233
1749976396.4442832,2467
1749976396.444358,2389
1749976396.4444335,2130
1749976396.4445014,1865
1749976396.4445791,1648
1749976396.444655,1437
1749976396.4447367,1243
1749976396.444818,1283
1749976396.4448967,1662
1749976396.444977,2172
1749976396.4450548,2460
1749976396.4451342,2426
1749976396.4452107,2180
1749976396.4452868,1910
1749976396.4453614,1687
1749976396.445458,1479
1749976396.4653454,1268
1749976396.4654622,1257
1749976396.4655461,1597
1749976396.4656286,2129
1749976396.4657075,2482
1749976396.4657865,2501
1749976396.4658644,2274
1749976396.4659429,2002
1749976396.4660215,1778
1749976396.4660997,1575
1749976396.4661806,1342
1749976396.4662585,1247
1749976396.4664223,1491
1749976396.466502,1991
1749976396.4665802,2393
1749976396.4666588,2480
1749976396.4667382,2297
1749976396.4668179,2022
1749976396.466896,1776
1749976396.4669745,1565
1749976396.4670522,1340
1749976396.4671369,1230
1749976396.467218,1446
1749976396.4672966,1949
1749976396.4673762,2399
1749976396.467455,2535
1749976396.4675333,2374
1749976396.4676116,2091
1749976396.4676905,1840
1749976396.4677691,1641
1749976396.4678476,1428
1749976396.4679265,1264
1749976396.4680085,1364
1749976396.4680886,1769
1749976396.4681773,2218
1749976396.4682562,2425
1749976396.4683354,2348
1749976396.4684134,2100
1749976396.468492,1831
1749976396.46857,1603
1749976396.4686491,1396
1749976396.468742,1249
1749976396.468824,1357
1749976396.4689019,1770
1749976396.4689796,2250
1749976396.4690576,2489
1749976396.4691353,2427
1749976396.4692132,2176
1749976396.4692914,1902
1749976396.4693694,1674
1749976396.4694471,1469
1749976396.4695244,1282
1749976396.469602,1298
1749976396.4696796,1624
1749976396.469757,2095
1749976396.4698346,2393
1749976396.469912,2406
1749976396.4699893,2197
1749976396.4700673,1922
1749976396.470154,1668
1749976396.4702315,1445
1749976396.4703104,1243
1749976396.4703887,1233
1749976396.542872,1547
1749976396.5429432,2051
1749976396.5430143,2402
1749976396.5430796,2445
1749976396.5431454,2245
1749976396.5432115,1971
1749976396.561472,1721
1749976396.5615532,1499
1749976396.5691235,1275
1749976396.5704634,1207
1749976396.5705352,1482
1749976396.5706027,2014
1749976396.5707066,2446
1749976396.5707781,2549
1749976396.570842,2363
1749976396.570902,2079
1749976396.5709674,1834
1749976396.5710416,1635
1749976396.5711079,1410
1749976396.5712168,1251
1749976396.571283,1375
1749976396.5713487,1795
1749976396.5714142,2224
1749976396.5714784,2392
1749976396.5715435,2264
1749976396.5716088,1964
1749976396.5716739,1645
1749976396.571739,1378
1749976396.5718036,1146
1749976396.5718687,1003
1749976396.5719347,1138
1749976396.5720003,1572
1749976396.5720818,2049
1749976396.5721536,2284
1749976396.5722253,2230
1749976396.5722969,1990
1749976396.5723784,1720
1749976396.5724437,1494
1749976396.5725107,1298
1749976396.572576,1144
1749976396.5726428,1213
1749976396.572709,1577
1749976396.5727746,2046
1749976396.57284,2323
1749976396.5729141,2322
1749976396.5729883,2109
1749976396.5730593,1835
1749976396.5731335,1590
1749976396.573195,1386
1749976396.573266,1220
1749976396.5733366,1253
1749976396.573409,1579
1749976396.57348,2048
1749976396.5735455,2352
1749976396.5736113,2380
1749976396.5736792,2190
1749976396.5737474,1925
1749976396.5738146,1670
1749976396.5738814,1441
1749976396.5739505,1236
1749976396.5740206,1230
1749976396.5740802,1565
1749976396.5741417,2104
1749976396.5742128,2487
1749976396.5742822,2539
1749976396.5743616,2336
1749976396.5744324,2065
1749976396.5745049,1829
1749976396.5745747,1614
1749976396.574646,1371
1749976396.574716,1254
1749976396.5747914,1482
1749976396.5748634,2001
1749976396.5749333,2456
1749976396.5749927,2590
1749976396.5750513,2426
1749976396.5751238,2145
1749976396.575198,1894
1749976396.5752704,1687
1749976396.5753424,1462
1749976396.576811,1299
1749976396.5768888,1417
1749976396.5769594,1835
1749976396.5770268,2278
1749976396.5770946,2477
1749976396.5771625,2396
1749976396.5772285,2141
1749976396.5774233,1860
1749976396.5798466,1624
1749976396.579924,1424
1749976396.579992,1296
1749976396.580059,1407
1749976396.5801258,1785
1749976396.5801907,2212
1749976396.580262,2429
1749976396.5803275,2390
1749976396.580393,2167
1749976396.5804584,1889
1749976396.5805554,1631
1749976396.580621,1410
1749976396.5810795,1261
1749976396.5865414,1356
1749976396.5866165,1751
1749976396.5866842,2234
1749976396.5867534,2496
1749976396.58682,2467
1749976396.5868797,2241
1749976396.5869434,1977
1749976396.5870125,1738
1749976396.5870886,1509
1749976396.587157,1298
1749976396.587223,1306
1749976396.5872912,1667
1749976396.5873575,2206
1749976396.5874238,2552
1749976396.5874906,2563
1749976396.587557,2337
1749976396.5876267,2072
1749976396.5876973,1848
1749976396.5877645,1631
1749976396.587831,1379
1749976396.5878994,1279
1749976396.587966,1537
1749976396.5880325,2061
1749976396.5881064,2479
1749976396.588173,2570
1749976396.5882392,2383
1749976396.5883067,2106
1749976396.5883734,1864
1749976396.5884418,1658
1749976396.5885077,1429
1749976396.5885816,1293
1749976396.5886478,1456
1749976396.5887141,1901
1749976396.5887957,2323
1749976396.5888638,2476
1749976396.5889301,2352
1749976396.588997,2083
1749976396.5890632,1809
1749976396.5891285,1580
1749976396.5891964,1371
1749976396.5892622,1257
1749976396.589329,1423
1749976396.589395,1868
1749976396.5894604,2313
1749976396.5895262,2490
1749976396.589594,2389
1749976396.5896602,2139
1749976396.589726,1881
1749976396.5897944,1652
1749976396.5898595,1421
1749976396.589926,1252
1749976396.589991,1371
1749976396.5900548,1830
1749976396.5901148,2357
1749976396.59018,2605
1749976396.590245,2519
1749976396.5903122,2248
1749976396.590383,1986
1749976396.5904539,1782
1749976396.5905254,1571
1749976396.5905972,1343
1749976396.5906668,1322
1749976396.5907366,1649
1749976396.5908062,2149
1749976396.5908763,2469
1749976396.603157,2478
1749976396.651138,2259
1749976396.6512475,1992
1749976396.6513517,1758
1749976396.6515841,1539
1749976396.6519172,1318
1749976396.7630765,1285
1749976396.7644513,1592
1749976396.7655344,2104
1749976396.7669034,2458
1749976396.7679305,2493
1749976396.7710962,2284
1749976396.8204906,2012
1749976396.8355615,1776
1749976396.8358984,1565
1749976396.8366454,1343
1749976396.837496,1275
1749976396.8457208,1552
1749976396.8558285,2084
1749976396.8612294,2504
1749976396.8619127,2585
1749976396.8714225,2383
1749976396.8715787,2096
1749976396.8716605,1858
1749976396.874657,1664
1749976396.874779,1439
1749976396.8748534,1285
1749976396.8749206,1427
1749976396.8749812,1874
1749976396.8750503,2324
1749976396.8751233,2501
1749976396.8752139,2382
1749976396.875778,2107
1749976396.9058034,1832
1749976396.981477,1613
1749976396.9917958,1408
1749976397.0027335,1264
1749976397.0032153,1375
1749976397.003702,1777
1749976397.00417,2230
1749976397.0045025,2451
1749976397.0048337,2391
1749976397.0051622,2149
1749976397.0159903,1875
1749976397.109092,1636
1749976397.1214986,1423
1749976397.1215801,1269
1749976397.138895,1371
1749976397.1527565,1790
1749976397.1528702,2293
1749976397.152957,2549
1749976397.1530428,2489
1749976397.15321,2235
1749976397.1533418,1968
1749976397.1534255,1745
1749976397.1535091,1524
1749976397.1535914,1301
1749976397.1536741,1299
1749976397.1537547,1661
1749976397.1538367,2203
1749976397.1539192,2543
1749976397.1540015,2538
1749976397.1540873,2296
1749976397.1541727,2028
1749976397.154257,1813
1749976397.1543422,1600
1749976397.15443,1348
1749976397.1559615,1263
1749976397.1564226,1550
1749976397.1565452,2091
1749976397.1566868,2494
1749976397.1568236,2547
1749976397.1569448,2329
1749976397.1570644,2053
1749976397.1571836,1833
1749976397.1573033,1635
1749976397.1574564,1391
1749976397.1575782,1261
1749976397.1596546,1480
1749976397.159777,1997
1749976397.1598966,2442
1749976397.1602027,2550
1749976397.1607025,2360
1749976397.1612973,2076
1749976397.1614077,1844
1749976397.1615152,1653
1749976397.161845,1421
1749976397.1619573,1257
1749976397.1623933,1416
1749976397.1625042,1909
1749976397.162613,2401
1749976397.1629462,2573
1749976397.1633956,2421
1749976397.1636596,2136
1749976397.1643648,1891
1749976397.1665084,1694
1749976397.1669424,1460
1749976397.1679997,1255
1749976397.1681087,1349
1749976397.169625,1813
1749976397.1697435,2349
1749976397.1699028,2585
1749976397.1701798,2469
1749976397.1752148,2183
1749976397.1753385,1935
1749976397.1756222,1755
1749976397.1757283,1548
1749976397.1758318,1310
1749976397.175935,1299
1749976397.176043,1663
1749976397.1761472,2189
1749976397.1762497,2494
1749976397.1763532,2456
1749976397.176456,2199
1749976397.176569,1929
1749976397.1766717,1716
1749976397.1767745,1511
1749976397.1768765,1290
1749976397.1769783,1266
1749976397.1770813,1604
1749976397.177184,2141
1749976397.1772866,2491
1749976397.17739,2496
1749976397.1774936,2255
1749976397.1776009,1978
1749976397.1777048,1761
1749976397.177807,1572
1749976397.1779099,1349
1749976397.1780202,1251
1749976397.1825755,1474
1749976397.1826644,1948
1749976397.1833804,2334
1749976397.1834931,2427
1749976397.1835706,2258
1749976397.1836483,1987
1749976397.1837258,1734
1749976397.184171,1524
1749976397.1842787,1318
1749976397.1843572,1230
1749976397.1846695,1444
1749976397.2073383,1915
1749976397.2074468,2332
1749976397.2075667,2462
1749976397.20768,2318
1749976397.2078035,2046
1749976397.2078753,1783
1749976397.2079473,1568
1749976397.2080176,1358
1749976397.2080882,1226
1749976397.2081587,1368
1749976397.208229,1795
1749976397.2082996,2237
1749976397.2083702,2420
1749976397.20844,2325
1749976397.2085104,2077
1749976397.2085803,1822
1749976397.2086504,1598
1749976397.2087212,1371
1749976397.208808,1195
1749976397.2088795,1296
1749976397.2089503,1734
1749976397.2090213,2247
1749976397.2090921,2493
1749976397.209163,2415
1749976397.2092342,2154
1749976397.209305,1897
1749976397.2093763,1686
1749976397.2094471,1464
1749976397.209522,1241
1749976397.2095883,1258
1749976397.2096589,1650
1749976397.2097285,2204
1749976397.2097995,2528
1749976397.2098699,2498
1749976397.2099404,2241
1749976397.2100108,1974
1749976397.2103553,1767
1749976397.2104292,1558
1749976397.2105024,1308
1749976397.210573,1231
1749976397.2106435,1521
1749976397.210714,2046
1749976397.2107842,2419
1749976397.2108543,2457
1749976397.211019,2241
1749976397.2110898,1973
1749976397.2111597,1749
1749976397.2112303,1536
1749976397.2113006,1291
1749976397.2115602,1200
1749976397.2116306,1480
1749976397.2117004,2035
1749976397.2117708,2468
1749976397.2118416,2537
1749976397.2119114,2318
1749976397.2119813,2034
1749976397.2120519,1816
1749976397.21213,1629
1749976397.2122009,1384
1749976397.2122715,1209
1749976397.212342,1362
1749976397.2124124,1845
1749976397.2124836,2316
1749976397.2125542,2473
1749976397.2126253,2322
1749976397.2126954,2044
1749976397.2127657,1801
1749976397.2128363,1602
1749976397.2129068,1377
1749976397.2129772,1205
1749976397.2130477,1333
1749976397.2131183,1802
1749976397.2131884,2307
1749976397.2132592,2513
1749976397.2133296,2392
1749976397.2134025,2111
1749976397.213473,1855
1749976397.213544,1655
1749976397.213615,1440
1749976397.2136853,1233
1749976397.2137558,1277
1749976397.2138267,1673
1749976397.2138968,2190
1749976397.2139673,2465
1749976397.2140381,2409
1749976397.2298636,2150
1749976397.2678723,1884
1749976397.3016107,1670
1749976397.3017433,1459
1749976397.3018503,1239
1749976397.3019633,1226
1749976397.3020742,1566
1749976397.3027155,2088
1749976397.302823,2420
1749976397.3030236,2422
1749976397.3031287,2189
1749976397.3438463,1916
1749976397.3440282,1690
1749976397.3440995,1485
1749976397.3441658,1266
1749976397.3442328,1217
1749976397.3442996,1512
1749976397.344396,2030
1749976397.346288,2402
1749976397.3463628,2445
1749976397.3464303,2236
1749976397.3464978,1968
1749976397.3465648,1740
1749976397.3466318,1535
1749976397.346698,1302
1749976397.3467643,1195
1749976397.3468351,1429
1749976397.3469048,1940
1749976397.3469708,2373
1749976397.3470385,2481
1749976397.3471057,2303
1749976397.347173,2022
1749976397.3472393,1774
1749976397.347305,1568
1749976397.3473713,1343
1749976397.3474374,1196
1749976397.347503,1346
1749976397.3475692,1800
1749976397.3476355,2257
1749976397.3477025,2439
1749976397.3477688,2329
1749976397.3478348,2064
1749976397.3479016,1797
1749976397.3479695,1577
1749976397.348037,1367
1749976397.3481028,1213
1749976397.3482485,1308
1749976397.3483162,1695
1749976397.348383,2145
1749976397.3484495,2374
1749976397.348516,2329
1749976397.3486004,2097
1749976397.3486676,1819
1749976397.3487468,1573
1749976397.348814,1363
1749976397.3488803,1213
1749976397.3489466,1291
1749976397.349028,1657
1749976397.3491127,2116
1749976397.34918,2376
1749976397.3492472,2361
1749976397.349314,2147
1749976397.3493814,1876
1749976397.3494499,1621
1749976397.3495307,1393
1749976397.3495984,1201
1749976397.3496659,1227
1749976397.3497322,1580
1749976397.3497999,2096
1749976397.349867,2429
1749976397.3499537,2448
1749976397.3500218,2234
1749976397.3500884,1964
1749976397.3501556,1723
1749976397.350222,1497
1749976397.3502905,1259
1749976397.350378,1192
1749976397.3504448,1484
1749976397.3505113,2025
1749976397.3505788,2436
1749976397.3506448,2505
1749976397.3507123,2301
1749976397.350793,2031
1749976397.35086,1807
1749976397.3509312,1601
1749976397.3509974,1347
1749976397.351078,1199
1749976397.351145,1408
1749976397.3512247,1943
1749976397.3512952,2430
1749976397.3513641,2572
1749976397.3514318,2390
1749976397.3514977,2094
1749976397.3515637,1851
1749976397.3516312,1666
1749976397.351712,1445
1749976397.351781,1259
1749976397.3518472,1352
1749976397.3519137,1773
1749976397.3538187,2242
1749976397.3538918,2451
1749976397.353959,2357
1749976397.3540246,2095
1749976397.3540895,1827
1749976397.3541539,1604
1749976397.3542187,1391
1749976397.3542845,1232
1749976397.354375,1339
1749976397.3544402,1767
1749976397.3545053,2264
1749976397.3545709,2503
1749976397.3546362,2430
1749976397.3547013,2171
1749976397.3547947,1900
1749976397.354856,1679
1749976397.3549173,1476
1749976397.3549886,1287
1749976397.3550541,1308
1749976397.355119,1644
1749976397.3552067,2121
1749976397.3552747,2414
1749976397.3553398,2418
1749976397.3554332,2203
1749976397.355499,1928
1749976397.3555646,1679
1749976397.3556526,1467
1749976397.3557186,1277
1749976397.3557835,1259
1749976397.355848,1535
1749976397.3559132,1988
1749976397.3559785,2318
1749976397.356043,2388
1749976397.35613,2224
1749976397.3561952,1952
1749976397.3562608,1676
1749976397.3563251,1451
1749976397.3563895,1266
1749976397.3564544,1231
1749976397.3692782,1468
1749976397.419806,1899
1749976397.4202087,2246
1749976397.4205773,2349
1749976397.420944,2223
1749976397.4213088,1975
1749976397.421676,1703
1749976397.422046,1458
1749976397.4224331,1243
1749976397.4227984,1173
1749976397.4231536,1419
1749976397.4235203,1923
1749976397.423886,2368
1749976397.4254904,2507
1749976397.4519093,2361
1749976397.4583106,2089
1749976397.4584935,1835
1749976397.458608,1618
1749976397.458722,1383
1749976397.4588468,1208
1749976397.4589462,1328
1749976397.459059,1786
1749976397.4591718,2292
1749976397.4592874,2520
1749976397.4594002,2426
1749976397.459512,2159
1749976397.459625,1896
1749976397.4597375,1680
1749976397.4598503,1452
1749976397.459963,1238
1749976397.4600756,1273
1749976397.4601877,1657
1749976397.4602995,2170
1749976397.4604115,2462
1749976397.4605236,2433
1749976397.4606357,2184
1749976397.4607477,1900
1749976397.4608605,1665
1749976397.460972,1457
1749976397.4610844,1259
1749976397.461199,1253
1749976397.4613118,1561
1749976397.4614239,2034
1749976397.461536,2349
1749976397.4616344,2377
1749976397.4617438,2176
1749976397.4618566,1904
1749976397.461968,1652
1749976397.4919016,1431
1749976397.5484529,1232
1749976397.5490885,1226
1749976397.5491633,1556
1749976397.5492358,2088
1749976397.549303,2461
1749976397.549369,2499
1749976397.5494354,2280
1749976397.5495005,2000
1749976397.5495675,1768
1749976397.549633,1565
1749976397.549712,1333
1749976397.5497782,1223
1749976397.5498438,1458
1749976397.5499089,1981
1749976397.549976,2426
1749976397.5500386,2537
1749976397.5500987,2356
1749976397.5501637,2081
1749976397.5502293,1851
1749976397.5502946,1652
1749976397.5503635,1408
1749976397.5504296,1233
1749976397.5504947,1383
1749976397.550562,1870
1749976397.5506358,2364
1749976397.55071,2551
1749976397.550781,2418
1749976397.5508516,2136
1749976397.5509214,1875
1749976397.5509953,1670
1749976397.551064,1458
1749976397.5511298,1276
1749976397.551195,1340
1749976397.5512598,1715
1749976397.5513272,2168
1749976397.5513928,2402
1749976397.5514581,2357
1749976397.5515242,2121
1749976397.551594,1843
1749976397.551671,1599
1749976397.5517435,1387
1749976397.55181,1230
1749976397.5518787,1305
1749976397.5519435,1676
1749976397.5520089,2145
1749976397.5520837,2407
1749976397.552149,2384
1749976397.5522146,2157
1749976397.5522842,1882
1749976397.5523577,1638
1749976397.552425,1427
1749976397.5524945,1245
1749976397.5525646,1261
1749976397.552636,1593
1749976397.552708,2092
1749976397.5527782,2425
1749976397.5528483,2454
1749976397.5529187,2245
1749976397.5529888,1968
1749976397.5530589,1721
1749976397.5531285,1510
1749976397.5531983,1304
1749976397.5532682,1248
1749976397.5533369,1506
1749976397.55341,1991
1749976397.5534806,2377
1749976397.5535524,2474
1749976397.5536265,2310
1749976397.5536969,2037
1749976397.5537667,1775
1749976397.5538378,1557
1749976397.553908,1346
1749976397.5539787,1243
1749976397.5540485,1418
1749976397.5541186,1842
1749976397.5541887,2241
1749976397.5542576,2395
1749976397.554328,2293
1749976397.5543983,2038
1749976397.6041443,1756
1749976397.7029707,1510
1749976397.707918,1299
1749976397.7087445,1205
1749976397.7098005,1401
1749976397.710624,1867
1749976397.7107022,2321
1749976397.7107735,2497
1749976397.710837,2390
1749976397.7108977,2130
1749976397.7109773,1862
1749976397.711046,1626
1749976397.7111118,1391
1749976397.711176,1218
1749976397.7121227,1332
1749976397.7152667,1785
1749976397.7190561,2307
1749976397.7191613,2555
1749976397.7192292,2476
1749976397.7192955,2218
1749976397.7194967,1969
1749976397.719572,1761
1749976397.720253,1526
1749976397.7203197,1277
1749976397.7203836,1264
1749976397.7204494,1631
1749976397.7205153,2172
1749976397.7205799,2496
1749976397.7206447,2476
1749976397.7207088,2230
1749976397.7207792,1964
1749976397.7208436,1745
1749976397.7209094,1525
1749976397.7209744,1281
1749976397.7210393,1238
1749976397.721104,1578
1749976397.721168,2143
1749976397.721233,2523
1749976397.7212987,2538
1749976397.721364,2292
1749976397.7214286,2014
1749976397.7341816,1804
1749976397.7682407,1611
1749976397.7683349,1362
1749976397.7684243,1234
1749976397.7685177,1457
1749976397.768607,1969
1749976397.7686956,2396
1749976397.768801,2494
1749976397.7688909,2305
1749976397.7689798,2025
1749976397.7690685,1789
1749976397.7691581,1592
1749976397.7692475,1367
1749976397.7693365,1233
1749976397.7694254,1419
1749976397.7695143,1905
1749976397.7696035,2353
1749976397.7696924,2489
1749976397.7697816,2332
1749976397.7698708,2062
1749976397.7699635,1826
1749976397.7700603,1627
1749976397.8498676,1398
1749976397.8887491,1226
1749976397.8890471,1360
1749976397.8891318,1836
1749976397.8892138,2345
1749976397.8892941,2548
1749976397.8893743,2418
1749976397.8894546,2133
1749976397.8895347,1884
1749976397.8914108,1696
1749976397.8915923,1485
1749976397.8916812,1267
1749976397.891763,1285
1749976397.8918521,1659
1749976397.8919978,2166
1749976397.892104,2447
1749976397.8921924,2404
1749976397.8922772,2152
1749976397.8923855,1884
1749976397.8931487,1665
1749976397.908323,1452
1749976397.9084334,1244
1749976397.9085371,1262
1749976397.9086409,1642
1749976397.9087565,2187
1749976397.9088602,2509
1749976397.908964,2480
1749976397.9090667,2227
1749976397.9091694,1965
1749976397.9092724,1762
1749976397.9093752,1556
1749976397.909478,1303
1749976397.9095933,1223
1749976397.909697,1528
1749976397.9097996,2085
1749976397.909905,2484
1749976397.9100075,2517
1749976397.9101915,2279
1749976397.9102943,2003
1749976397.9103975,1793
1749976397.9104996,1599
1749976397.9106023,1349
1749976397.9166415,1214
1749976397.917032,1438
1749976397.9361548,1967
1749976397.9585114,2419
1749976397.9586,2528
1749976397.9586856,2335
1749976397.9587724,2046
1749976397.9588518,1807
1749976397.9590483,1617
1749976397.9591284,1396
1749976397.9592068,1236
1749976397.9592853,1361
1749976397.959363,1790
1749976397.959441,2232
1749976397.9595199,2411
1749976397.9595988,2305
1749976397.9596765,2043
1749976397.9597542,1774
1749976397.959832,1551
1749976397.9599104,1344
1749976397.9599886,1203
1749976397.9600663,1324
1749976397.960145,1739
1749976397.9602227,2197
1749976397.9603,2406
1749976397.9603782,2328
1749976397.960456,2077
1749976397.9605343,1808
1749976397.960612,1573
1749976397.960701,1351
1749976397.9607792,1174
1749976397.9608572,1257
1749976397.9609349,1678
1749976397.9610124,2205
1749976397.9610903,2485
1749976397.9611678,2431
1749976397.9612458,2171
1749976397.9613235,1905
1749976397.9614015,1695
1749976397.9614794,1487
1749976397.961557,1252
1749976397.9616346,1200
1749976397.9617126,1500
1749976397.9617906,2011
1749976397.9618683,2365
1749976397.9619462,2396
1749976397.9620242,2179
1749976397.9622314,1904
1749976397.9623103,1668
1749976397.962388,1452
1749976397.9624662,1221
1749976397.962545,1158
1749976397.962629,1456
1749976397.9627068,2006
1749976397.9627843,2424
1749976397.9629207,2490
1749976397.9678524,2269
1749976397.9792993,1976
1749976397.97941,1740
1749976398.0296588,1548
1749976398.0314686,1317
1749976398.031639,1171
1749976398.031797,1341
1749976398.0343463,1814
1749976398.0345018,2261
1749976398.0346084,2412
1749976398.0354578,2269
1749976398.0355663,1996
1749976398.035671,1744
1749976398.0357747,1539
1749976398.0358782,1323
1749976398.0359848,1179
1749976398.0360909,1329
1749976398.0361955,1792
1749976398.0362985,2269
1749976398.0374384,2458
1749976398.0375419,2336
1749976398.037645,2058
1749976398.0377474,1793
1749976398.0378497,1584
1749976398.037952,1375
1749976398.0380542,1198
1749976398.0381572,1275
1749976398.0382593,1683
1749976398.0383613,2180
1749976398.0384638,2435
1749976398.0385659,2375
1749976398.04016,2116
1749976398.0402722,1842
1749976398.0403752,1622
1749976398.0404782,1418
1749976398.0405827,1224
1749976398.0406873,1241
1749976398.040792,1585
1749976398.0408947,2079
1749976398.0409973,2384
1749976398.0411003,2383
1749976398.0412033,2156
1749976398.0413246,1880
1749976398.0414271,1643
1749976398.04153,1435
1749976398.0416322,1236
1749976398.0417361,1222
1749976398.0418437,1535
1749976398.0442293,2041
1749976398.044822,2390
1749976398.044953,2426
1749976398.0452642,2218
1749976398.0453706,1944
1749976398.0458121,1706
1749976398.0459251,1499
1749976398.0460584,1282
1749976398.0461674,1205
1749976398.046272,1454
1749976398.0502896,1953
1749976398.0503635,2358
1749976398.050434,2455
1749976398.0505047,2280
1749976398.050575,2006
1749976398.0506449,1757
1749976398.11041,1543
1749976398.118577,1315
1749976398.1339295,1191
1749976398.1340544,1383
1749976398.144946,1869
1749976398.1450658,2325
1749976398.145175,2481
1749976398.1452978,2340
1749976398.1454163,2062
1749976398.1551933,1802
1749976398.155282,1592
1749976398.1553729,1379
1749976398.1554697,1219
1749976398.1555486,1324
1749976398.1556265,1734
1749976398.1557047,2193
1749976398.1557825,2407
1749976398.1558619,2331
1749976398.1559408,2078
1749976398.156018,1810
1749976398.156096,1587
1749976398.1561742,1381
1749976398.1562386,1214
1749976398.1563165,1282
1749976398.156394,1659
1749976398.1564748,2132
1749976398.1565666,2389
1749976398.1566448,2351
1749976398.1567233,2115
1749976398.1568017,1841
1749976398.1568794,1599
1749976398.1569579,1380
1749976398.1570354,1196
1749976398.1571126,1247
1749976398.1571898,1642
1749976398.157275,2183
1749976398.157355,2508
1749976398.1574352,2493
1749976398.1575127,2244
1749976398.1575904,1963
1749976398.1576676,1737
1749976398.1577454,1537
1749976398.1578226,1311
1749976398.1579,1226
1749976398.1579773,1462
1749976398.1580546,1935
1749976398.1581197,2315
1749976398.1581855,2412
1749976398.1582632,2248
1749976398.1583412,1972
1749976398.1584182,1702
1749976398.1584954,1477
1749976398.1585722,1271
1749976398.1586494,1201
1749976398.158738,1422
1749976398.1588197,1876
1749976398.1588902,2262
1749976398.1589491,2381
1749976398.1590257,2244
1749976398.1591024,1977
1749976398.159179,1703
1749976398.1592653,1472
1749976398.1593413,1266
1749976398.159418,1175
1749976398.1594946,1376
1749976398.1595712,1844
1749976398.1596475,2286
1749976398.1597242,2448
1749976398.159801,2329
1749976398.1598787,2068
1749976398.1599567,1804
1749976398.1600356,1570
1749976398.1601162,1336
1749976398.1601934,1180
1749976398.2195418,1332
1749976398.241885,1821
1749976398.2421787,2350
1749976398.2422764,2581
1749976398.2423544,2479
1749976398.2425954,2206
1749976398.2487211,1950
1749976398.2488267,1743
1749976398.2489085,1515
1749976398.2489896,1279
1749976398.2490704,1276
1749976398.2491517,1631
1749976398.2492337,2138
1749976398.24932,2439
1749976398.2494013,2424
1749976398.249482,2193
1749976398.2497349,1926
1749976398.2498147,1692
1749976398.2498915,1468
1749976398.249971,1252
1749976398.2500496,1258
1749976398.250131,1619
1749976398.2502272,2159
1749976398.2503078,2502
1749976398.250391,2507
1749976398.2504723,2273
1749976398.250553,1997
1749976398.2506337,1766
1749976398.2507138,1551
1749976398.2507935,1319
1749976398.2508729,1254
1749976398.2509696,1544
1749976398.2510781,2079
1749976398.251159,2481
1749976398.2512405,2543
1749976398.2513208,2334
1749976398.2514005,2056
1749976398.2514803,1828
1749976398.25156,1634
1749976398.2516418,1405
1749976398.251728,1265
1749976398.2533953,1436
1749976398.253708,1896
1749976398.2662024,2326
1749976398.3182228,2472
1749976398.4188259,2335
1749976398.4305918,2065
1749976398.4306679,1804
1749976398.430735,1588
1749976398.4311948,1376
1749976398.4313335,1250
1749976398.4449239,1415
1749976398.4473648,1874
1749976398.447455,2337
1749976398.4475384,2518
1749976398.4476209,2400
1749976398.4477036,2127
1749976398.447786,1860
1749976398.4478679,1643
1749976398.4479496,1428
1749976398.4480312,1262
1749976398.448113,1365
1749976398.4481943,1799
1749976398.4482744,2307
1749976398.4483576,2553
1749976398.448439,2478
1749976398.448519,2217
1749976398.4485996,1954
1749976398.4486797,1738
1749976398.4487703,1514
1749976398.4488509,1296
1749976398.448931,1322
1749976398.449011,1715
1749976398.4490917,2258
1749976398.4491718,2568
1749976398.4492495,2531
1749976398.4493222,2275
1749976398.4493985,2010
1749976398.449475,1802
1749976398.449551,1592
1749976398.4496279,1348
1749976398.4497042,1288
1749976398.4497807,1594
1749976398.4498572,2125
1749976398.457427,2494
1749976398.4575422,2524
1749976398.4576473,2298
1749976398.4577522,2017
1749976398.4578567,1781
1749976398.4579608,1567
1749976398.4580646,1332
1749976398.4582717,1249
1749976398.4583762,1519
1749976398.45848,2048
1749976398.4585829,2462
1749976398.4586859,2539
1749976398.4588068,2342
1749976398.4590068,2068
1749976398.4591107,1839
1749976398.4592414,1634
1749976398.4594235,1391
1749976398.4596043,1253
1749976398.4597833,1460
1749976398.4599633,1983
1749976398.460151,2455
1749976398.4603302,2586
1749976398.460526,2408
1749976398.4606304,2127
1749976398.4607334,1898
1749976398.4608362,1704
1749976398.460939,1455
1749976398.4610434,1251
1749976398.461147,1375
1749976398.4612498,1874
1749976398.4613552,2408
1749976398.4614594,2615
1749976398.461563,2469
1749976398.4616709,2176
1749976398.4617777,1936
1749976398.4618802,1755
1749976398.461987,1528
1749976398.473947,1285
1749976398.4948652,1307
1749976398.4954681,1715
1749976398.5297956,2254
1749976398.5300312,2531
1749976398.5302556,2456
1749976398.5303836,2181
1749976398.530473,1919
1749976398.5305598,1718
1749976398.530647,1509
1749976398.5307336,1279
1749976398.5308204,1265
1749976398.5309055,1620
1749976398.5309913,2156
1749976398.5310779,2486
1749976398.531165,2473
1749976398.531252,2225
1749976398.5313382,1949
1749976398.5314255,1731
1749976398.531512,1536
1749976398.531599,1317
1749976398.5316856,1253
1749976398.5317724,1519
1749976398.5318594,2006
1749976398.5319467,2364
1749976398.5320334,2417
1749976398.5321362,2221
1749976398.5322258,1951
1749976398.5323145,1712
1749976398.532404,1504
1749976398.5324926,1289
1749976398.532581,1214
1749976398.5334067,1467
1749976398.544149,1977
1749976398.5442605,2391
1749976398.5443654,2483
1749976398.5444703,2295
1749976398.5445735,2010
1749976398.5446773,1761
1749976398.5447807,1554
1749976398.5448847,1331
1749976398.544988,1199
1749976398.5450914,1382
1749976398.5451949,1871
1749976398.5452983,2343
1749976398.5454183,2512
1749976398.5455236,2376
1749976398.5456274,2100
1749976398.5457304,1844
1749976398.5458329,1634
1749976398.5459356,1410
1749976398.556556,1226
1749976398.556671,1307
1749976398.5567768,1707
1749976398.5568798,2175
1749976398.5604222,2407
1749976398.5605276,2351
1749976398.5606315,2112
1749976398.5607345,1845
1749976398.5608373,1608
1749976398.5609398,1386
1749976398.5610433,1215
1749976398.5611575,1295
1749976398.5612833,1695
1749976398.5613878,2190
1749976398.5614908,2454
1749976398.5615933,2414
1749976398.5616965,2174
1749976398.561799,1902
1749976398.5619023,1668
1749976398.5620058,1450
1749976398.5621295,1249
1749976398.5622342,1257
1749976398.5623505,1597
1749976398.5624378,2103
1749976398.5625088,2426
1749976398.5625792,2440
1749976398.56265,2226
1749976398.5627215,1960
1749976398.5627923,1723
1749976398.5628624,1500
1749976398.5629332,1272
1749976398.5630043,1225
1749976398.5630753,1533
1749976398.5631456,2074
1749976398.5632167,2473
1749976398.5632868,2532
1749976398.563357,2320
1749976398.5634286,2038
1749976398.5634987,1804
1749976398.5635705,1599
1749976398.5636404,1361
1749976398.563712,1228
1749976398.563783,1424
1749976398.5638537,1915
1749976398.5639246,2359
1749976398.5639954,2496
1749976398.5640671,2342
1749976398.5641372,2065
1749976398.5642078,1809
1749976398.5642877,1590
1749976398.5643585,1357
1749976398.564429,1212
1749976398.5644991,1382
1749976398.56457,1874
1749976398.5646408,2366
1749976398.5647113,2553
1749976398.5647826,2423
1749976398.5648537,2139
1749976398.5649242,1876
1749976398.5649948,1670
1749976398.5650654,1460
1749976398.6071982,1274
1749976398.6890209,1325
1749976398.6911836,1690
1749976398.7324877,2148
1749976398.7723873,2397
1749976398.772465,2363
1749976398.7725332,2128
1749976398.7726004,1847
1749976398.7726684,1600
1749976398.7727385,1392
1749976398.7728062,1233
1749976398.7728734,1292
1749976398.7729409,1640
1749976398.7730086,2099
1749976398.7730753,2373
1749976398.7731416,2375
1749976398.7732086,2167
1749976398.773275,1891
1749976398.773342,1633
1749976398.7734077,1415
1749976398.773474,1236
1749976398.7735417,1256
1749976398.773608,1583
1749976398.7736747,2074
1749976398.7737405,2406
1749976398.7738056,2441
1749976398.7738724,2239
1749976398.7739391,1964
1749976398.7740045,1713
1749976398.7869575,1491
1749976398.787041,1273
1749976398.787114,1220
1749976398.7872171,1510
1749976398.787294,2045
1749976398.7873654,2462
1749976398.7874362,2547
1749976398.7875063,2354
1749976398.7875772,2078
1749976398.7876477,1842
1749976398.7877178,1629
1749976398.7877889,1374
1749976398.7878587,1226
1749976398.7879293,1432
1749976398.7880003,1965
1749976398.788071,2455
1749976398.7881413,2600
1749976398.7882118,2423
1749976398.7882817,2133
1749976398.788352,1892
1749976398.788429,1691
1749976398.7884989,1445
1749976398.7885695,1247
1749976398.7886395,1367
1749976398.7887096,1852
1749976398.788788,2381
1749976398.788859,2602
1749976398.7889297,2481
1749976398.7890005,2190
1749976398.7890716,1924
1749976398.7891426,1720
1749976398.8091197,1505
1749976398.8092031,1300
1749976398.8100405,1334
1749976398.8119648,1704
1749976398.8124096,2191
1749976398.8127089,2463
1749976398.8534489,2430
1749976398.863471,2184
1749976398.8637018,1899
1749976398.8639042,1657
1749976398.8641229,1445
1749976398.864325,1263
1749976398.8645453,1297
1749976398.8647454,1645
1749976398.8649623,2132
1749976398.865178,2425
1749976398.8654137,2416
1749976398.8656194,2187
1749976398.8658354,1911
1749976398.8662257,1665
1749976398.8663743,1439
1749976398.8665185,1228
1749976398.8666775,1233
1749976398.866829,1605
1749976398.866973,2181
1749976398.867138,2562
1749976398.8672826,2574
1749976398.8674264,2327
1749976398.8675845,2050
1749976398.86773,1837
1749976398.8678746,1631
1749976398.868031,1364
1749976398.8681753,1225
1749976398.869587,1462
1749976398.872864,2009
1749976398.874702,2469
1749976398.8761675,2573
1749976398.8773699,2373
1749976398.8878295,2092
1749976398.9276245,1866
1749976398.9281018,1669
1749976398.9281762,1417
1749976398.9291623,1239
1749976398.9292383,1399
1749976398.9293108,1901
1749976398.9293835,2395
1749976398.9294562,2566
1749976398.9295285,2410
1749976398.9296007,2112
1749976398.9296737,1845
1749976398.929746,1640
1749976398.9298182,1427
1749976398.9298906,1258
1749976398.929963,1357
1749976398.9300385,1774
1749976398.930107,2250
1749976398.9301727,2479
1749976398.930239,2409
1749976398.9303052,2153
1749976398.9303713,1874
1749976398.930437,1638
1749976398.9305031,1427
1749976398.9305701,1263
1749976398.930636,1334
1749976398.9310884,1705
1749976399.054045,2169
1749976399.0654502,2425
1749976399.0816295,2401
1749976399.1423213,2179
1749976399.1424026,1909
1749976399.1424708,1662
1749976399.142537,1437
1749976399.1426036,1251
1749976399.1426697,1296
1749976399.1429462,1673
1749976399.143285,2198
1749976399.1436112,2519
1749976399.1439412,2515
1749976399.1442726,2280
1749976399.1446068,2006
1749976399.1449375,1774
1749976399.1452708,1559
1749976399.1458101,1328
1749976399.1461437,1269
1749976399.1465738,1565
1749976399.146906,2101
1749976399.1472373,2502
1749976399.1475604,2565
1749976399.147881,2358
1749976399.1942713,2081
1749976399.257703,1847
1749976399.2921371,1631
1749976399.3488672,1375
1749976399.3675306,1242
1749976399.3676407,1467
1749976399.367739,1997
1749976399.3678412,2455
1749976399.367937,2574
1749976399.3680353,2389
1749976399.3681538,2104
1749976399.376095,1862
1749976399.3761766,1655
1749976399.3762455,1412
1749976399.3763134,1245
1749976399.3763819,1409
1749976399.3764493,1911
1749976399.3765152,2413
1749976399.3765826,2598
1749976399.376714,2456
1749976399.3767893,2164
1749976399.3768563,1903
1749976399.3769245,1700
1749976399.3769913,1484
1749976399.377057,1289
1749976399.3771224,1343
1749976399.3771887,1720
1749976399.3772547,2185
1749976399.3773217,2427
1749976399.3773897,2377
1749976399.3774579,2135
1749976399.3775258,1861
1749976399.3775945,1621
1749976399.3776605,1401
1749976399.3777268,1228
1749976399.377793,1307
1749976399.3778598,1714
1749976399.3779254,2229
1749976399.3779917,2507
1749976399.378057,2461
1749976399.3781235,2206
1749976399.37837,1928
1749976399.3784356,1697
1749976399.3785024,1480
1749976399.378568,1265
1749976399.3786345,1262
1749976399.3787003,1622
1749976399.3787832,2174
1749976399.3788435,2529
1749976399.378914,2531
1749976399.3789802,2283
1749976399.3790514,2002
1749976399.3791187,1775
1749976399.379187,1556
1749976399.3792531,1293
1749976399.37932,1183
1749976399.3793876,1442
1749976399.3794541,1978
1749976399.3795195,2400
1749976399.3808434,2479
1749976399.4561393,2278
1749976399.4622362,2007
1749976399.486347,1783
1749976399.4956539,1580
1749976399.50853,1333
1749976399.5086386,1197
1749976399.5087488,1415
1749976399.5088487,1948
1749976399.508947,2421
1749976399.509051,2548
1749976399.509148,2360
1749976399.5092437,2065
1749976399.509341,1818
1749976399.5094364,1619
1749976399.509531,1388
1749976399.5096273,1215
1749976399.5097218,1349
1749976399.509822,1821
1749976399.5099218,2319
1749976399.5100162,2521
1749976399.5101166,2398
1749976399.510213,2113
1749976399.5103095,1843
1749976399.5104058,1632
1749976399.5105016,1424
1749976399.510598,1244
1749976399.5106912,1305
1749976399.510786,1683
1749976399.5108893,2156
1749976399.510984,2412
1749976399.5110774,2374
1749976399.511173,2129
1749976399.5112755,1839
1749976399.511372,1589
1749976399.5114706,1381
1749976399.5115683,1223
1749976399.511669,1283
1749976399.5117695,1640
1749976399.51187,2115
1749976399.5119674,2400
1749976399.5177262,2400
1749976399.5178308,2186
1749976399.5179274,1909
1749976399.568598,1652
1749976399.5833058,1424
1749976399.6281664,1228
1749976399.70056,1240
1749976399.7488222,1585
1749976399.774854,2113
1749976399.7793622,2471
1749976399.785026,2505
1749976399.7916856,2292
1749976399.7917693,2018
1749976399.791849,1780
1749976399.792251,1560
1749976399.792333,1320
1749976399.7924151,1231
1749976399.7924936,1501
1749976399.7925713,2043
1749976399.7926495,2480
1749976399.7927277,2572
1749976399.7928057,2372
1749976399.7928834,2085
1749976399.792961,1845
1749976399.7930386,1634
1749976399.7931163,1380
1749976399.793194,1220
1749976399.8091936,1409
1749976399.8598785,1933
1749976399.8819551,2430
1749976399.9016566,2591
1749976399.9017572,2427
1749976399.901833,2136
1749976399.9019065,1887
1749976399.9019814,1684
1749976399.9020562,1446
1749976399.9021318,1252
1749976399.9022017,1362
1749976399.9022741,1824
1749976399.902346,2337
1749976399.9024184,2559
1749976399.9024904,2448
1749976399.9025629,2162
1749976399.9026344,1891
1749976399.902707,1680
1749976399.9027789,1467
1749976399.9081953,1268
1749976399.9170256,1306
1749976400.014162,1677
1749976400.0345325,2166
1749976400.1185186,2438
1749976400.118599,2404
1749976400.1186702,2162
1749976400.1187518,1883
1749976400.1502264,1643
1749976400.1539772,1428
1749976400.1543257,1244
1749976400.1546555,1285
1749976400.1550927,1658
1749976400.1554735,2177
1749976400.1558073,2490
1749976400.15614,2480
1749976400.1564775,2240
1749976400.156806,1957
1749976400.157142,1720
1749976400.1574736,1514
1749976400.1578074,1304
1749976400.158138,1260
1749976400.1584678,1539
1749976400.1588252,2029
1749976400.1591578,2392
1749976400.1594884,2456
1749976400.1598184,2270
1749976400.1601593,1999
1749976400.1604908,1746
1749976400.160821,1523
1749976400.1611617,1300
1749976400.161494,1221
1749976400.1618245,1467
1749976400.1643755,1966
1749976400.276342,2382
1749976400.276451,2495
1749976400.2765198,2331
1749976400.2765882,2047
1749976400.2766554,1774
1749976400.276722,1550
1749976400.2767885,1337
1749976400.2768548,1225
1749976400.2769208,1399
1749976400.2769935,1844
1749976400.2770598,2281
1749976400.2771254,2460
1749976400.2771914,2363
1749976400.2772574,2102
1749976400.2773232,1818
1749976400.2773895,1576
1749976400.2774549,1359
1749976400.2775202,1217
1749976400.2775855,1329
1749976400.2776515,1722
1749976400.2777166,2167
1749976400.2777817,2392
1749976400.2778473,2346
1749976400.2779129,2112
1749976400.2779763,1830
1749976400.2780347,1572
1749976400.2780998,1340
1749976400.2781644,1178
1749976400.2782316,1283
1749976400.2782955,1716
1749976400.2784026,2244
1749976400.280241,2524
1749976400.2811635,2473
1749976400.2814689,2214
1749976400.2815378,1938
1749976400.2816079,1711
1749976400.2816749,1490
1749976400.2817416,1261
1749976400.2818108,1246
1749976400.281877,1599
1749976400.281946,2152
1749976400.2820065,2515
1749976400.2820864,2528
1749976400.282155,2291
1749976400.282221,2019
1749976400.2822871,1798
1749976400.282354,1582
1749976400.2824209,1324
1749976400.2824886,1225
1749976400.2825546,1501
1749976400.2826252,2048
1749976400.2826955,2472
1749976400.2827656,2547
1749976400.2828352,2338
1749976400.2828984,2056
1749976400.2829642,1821
1749976400.2830346,1613
1749976400.2831051,1368
1749976400.2886055,1238
1749976400.3921738,1457
1749976400.4056542,1981
1749976400.40577,2439
1749976400.4058743,2559
1749976400.4239368,2374
1749976400.4779499,2081
1749976400.4939232,1831
1749976400.5577507,1628
1749976400.590314,1403
1749976400.6560218,1245
1749976400.656106,1384
1749976400.6561794,1839
1749976400.6562521,2309
1749976400.6563249,2501
1749976400.656398,2393
1749976400.65647,2125
1749976400.6565425,1857
1749976400.6566143,1639
1749976400.6566813,1430
1749976400.6567512,1262
1749976400.656824,1329
1749976400.6568944,1690
1749976400.6667602,2131
1749976400.6668816,2369
1749976400.6669574,2338
1749976400.667028,2111
1749976400.6670978,1828
1749976400.6671674,1570
1749976400.667237,1351
1749976400.6673067,1201
1749976400.6673763,1296
1749976400.6674466,1698
1749976400.667516,2198
1749976400.6675866,2474
1749976400.6676562,2440
1749976400.6677258,2197
1749976400.667795,1922
1749976400.6678646,1689
1749976400.6679335,1473
1749976400.6680028,1262
1749976400.668072,1251
1749976400.674449,1593
1749976400.6960776,2134
1749976400.6961625,2499
1749976400.696236,2524
1749976400.6963243,2298
1749976400.7167184,2026
1749976400.716977,1800
1749976400.7180717,1586
1749976400.7181473,1335
1749976400.7182157,1235
1749976400.7182822,1504
1749976400.7183483,2055
1749976400.7184136,2497
1749976400.718481,2587
1749976400.7185469,2379
1749976400.718613,2086
1749976400.7186792,1848
1749976400.7187598,1652
1749976400.7188191,1417
1749976400.718884,1257
1749976400.718951,1402
1749976400.7190166,1853
1749976400.7190826,2294
1749976400.719149,2457
1749976400.7193637,2330
1749976400.7194302,2062
1749976400.7194967,1799
1749976400.7195625,1578
1749976400.7196286,1358
1749976400.7196944,1223
1749976400.7197604,1387
1749976400.7198267,1860
1749976400.7198925,2342
1749976400.7199583,2529
1749976400.7200243,2407
1749976400.72009,2131
1749976400.720156,1871
1749976400.7203915,1658
1749976400.8051364,1437
1749976400.8052285,1249
1749976400.805308,1331
1749976400.805387,1759
1749976400.810278,2280
1749976400.8103945,2541
1749976400.810474,2469
1749976400.810549,2201
1749976400.8106177,1932
1749976400.8107429,1722
1749976400.8108063,1521
1749976400.8109431,1312
1749976400.8110144,1296
1749976400.811085,1607
1749976400.8112276,2087
1749976400.8112955,2405
1749976400.811364,2430
1749976400.8114302,2222
1749976400.8114963,1936
1749976400.811563,1671
1749976400.8116286,1452
1749976400.811694,1267
1749976400.8117583,1260
1749976400.8118246,1545
1749976400.8118927,2004
1749976400.8119597,2339
1749976400.8120258,2408
1749976400.8121035,2240
1749976400.8121703,1961
1749976400.8122365,1674
1749976400.812308,1439
1749976400.8123744,1253
1749976400.8124404,1227
1749976400.8125067,1479
1749976400.8125722,1927
1749976400.8126378,2291
1749976400.8127038,2402
1749976400.812771,2275
1749976400.8128371,2018
1749976400.812903,1736
1749976400.81297,1487
1749976400.8130364,1272
1749976400.8131034,1188
1749976400.813171,1398
1749976400.8132365,1861
1749976400.8133032,2289
1749976400.8133698,2453
1749976400.813438,2349
1749976400.813506,2098
1749976400.8337283,1828
1749976400.841089,1582
1749976400.8411663,1345
1749976400.8412344,1195
1749976400.8413007,1344
1749976400.8413708,1811
1749976400.8414385,2312
1749976400.8415058,2535
1749976400.8415768,2445
1749976400.841649,2184
1749976400.841715,1923
1749976400.8417816,1699
1749976400.8418505,1463
1749976400.8419175,1247
1749976400.841981,1294
1749976400.8420405,1704
1749976400.8421206,2237
1749976400.8436432,2527
1749976400.8438752,2480
1749976400.844014,2231
1749976400.844185,1978
1749976400.8443832,1767
1749976400.8445666,1534
1749976400.8462203,1272
1749976400.8463068,1231
1749976400.8463748,1582
1749976400.846441,2143
1749976400.8465106,2500
1749976400.8465784,2488
1749976400.8466454,2223
1749976400.846712,1940
1749976400.8467755,1734
1749976400.8468344,1546
1749976400.8469,1315
1749976400.8509169,1240
1749976400.902417,1534
1749976400.9613683,2087
1749976400.9732766,2497
1749976400.9734275,2544
1749976400.9735637,2311
1749976400.9747112,2026
1749976400.9748352,1808
1749976400.975583,1615
1749976400.9756749,1367
1749976400.9757612,1227
1749976400.9758468,1446
1749976400.976887,1981
1749976400.9769902,2447
1749976400.9770749,2563
1749976400.9771605,2369
1749976400.9889371,2080
1749976400.9890113,1850
1749976400.9890788,1661
1749976400.989144,1421
1749976400.9892104,1238
1749976400.989276,1376
1749976400.9893436,1860
1749976400.9894092,2356
1749976400.9894753,2538
1749976400.9895408,2392
1749976400.9896095,2104
1749976400.9896748,1855
1749976400.9897425,1660
1749976400.9898078,1441
1749976400.9898736,1249
1749976400.989942,1337
1749976400.9900007,1776
1749976400.9900658,2289
1749976400.9901314,2522
1749976400.9901974,2423
1749976400.9902623,2150
1749976400.9903278,1895
1749976400.990394,1697
1749976401.0065632,1485
1749976401.0426452,1268
1749976401.0461986,1287
1749976401.0462832,1668
1749976401.046357,2194
1749976401.0473804,2493
1749976401.0481157,2452
1749976401.0482233,2193
1749976401.0483272,1917
1749976401.0484612,1699
1749976401.048583,1498
1749976401.048716,1284
1749976401.0489976,1255
1749976401.049257,1569
1749976401.0502038,2084
1749976401.0506513,2439
1749976401.0508893,2472
1749976401.0511694,2252
1749976401.0643437,1967
1749976401.0675972,1727
1749976401.1288555,1533
1749976401.1653209,1334
1749976401.1726792,1261
1749976401.17276,1483
1749976401.1728365,1933
1749976401.1729128,2304
1749976401.1729891,2408
1749976401.1730604,2260
1749976401.1731339,1991
1749976401.1732156,1718
1749976401.1732903,1486
1749976401.1733687,1280
1749976401.1734407,1213
1749976401.213145,1450
1749976401.2291327,1932
1749976401.2300808,2349
1749976401.232634,2476
1749976401.2422621,2334
1749976401.2423751,2066
1749976401.242481,1804
1749976401.242597,1581
1749976401.242701,1361
1749976401.242805,1225
1749976401.242909,1376
1749976401.2430124,1825
1749976401.2431161,2290
1749976401.2432194,2488
1749976401.2433233,2394
1749976401.2434273,2135
1749976401.2435308,1868
1749976401.2441626,1642
1749976401.2442718,1421
1749976401.2443774,1243
1749976401.2444913,1317
1749976401.2448335,1709
1749976401.24494,2192
1749976401.2452166,2453
1749976401.2454302,2415
1749976401.2518914,2176
1749976401.2591379,1898
1749976401.2592504,1651
1749976401.2593548,1424
1749976401.2594595,1236
1749976401.259563,1290
1749976401.2596664,1683
1749976401.2601292,2213
1749976401.2602546,2525
1749976401.2606337,2508
1749976401.2630272,2268
1749976401.3119147,1993
1749976401.3217916,1758
1749976401.3218741,1535
1749976401.3219533,1301
1749976401.336749,1257
1749976401.371128,1573
1749976401.3800938,2111
1749976401.3817525,2492
1749976401.3818245,2534
1749976401.3818913,2316
1749976401.381959,2036
1749976401.3939743,1801
1749976401.407306,1594
1749976401.4483607,1358
1749976401.4487143,1250
1749976401.4490616,1474
1749976401.4643874,1971
1749976401.512565,2394
1749976401.5576088,2509
1749976401.5579627,2337
1749976401.559613,2048
1749976401.5604465,1784
1749976401.5714147,1575
1749976401.5715013,1367
1749976401.571577,1247
1749976401.5716517,1405
1749976401.5717256,1833
1749976401.5718317,2254
1749976401.614242,2421
1749976401.6563697,2319
1749976401.6576345,2062
1749976401.6581807,1787
1749976401.6587777,1547
1749976401.659238,1328
1749976401.6597273,1202
1749976401.6602378,1366
1749976401.6608012,1828
1749976401.661373,2306
1749976401.6775644,2504
1749976401.677687,2399
1749976401.6777937,2134
1749976401.6778975,1870
1749976401.6780856,1647
1749976401.678191,1420
1749976401.6785643,1228
1749976401.6786668,1302
1749976401.6787813,1729
1749976401.6918426,2262
1749976401.6921592,2543
1749976401.692324,2489
1749976401.6924348,2231
1749976401.6925483,1968
1749976401.7106268,1759
1749976401.7327006,1546
1749976401.7328563,1311
1749976401.7329483,1268
1749976401.7333066,1574
1749976401.7333875,2074
1749976401.7334723,2412
1749976401.7335558,2441
1749976401.733642,2231
1749976401.7337174,1961
1749976401.7337945,1719
1749976401.733884,1498
1749976401.7339647,1282
1749976401.734036,1258
1749976401.7341127,1589
1749976401.7341998,2139
1749976401.7342803,2526
1749976401.7343783,2565
1749976401.734471,2338
1749976401.73456,2052
1749976401.7346492,1822
1749976401.734737,1626
1749976401.7348042,1392
1749976401.7348938,1262
1749976401.7349799,1455
1749976401.7350707,1938
1749976401.7351756,2372
1749976401.7352655,2503
1749976401.7353547,2344
1749976401.7560837,2064
1749976401.7561631,1803
1749976401.75623,1588
1749976401.756298,1372
1749976401.7657638,1246
1749976401.7660465,1419
1749976401.7661955,1886
1749976401.766264,2344
1749976401.7663348,2518
1749976401.7664015,2398
1749976401.7664683,2126
1749976401.7665353,1855
1749976401.7666023,1634
1749976401.766668,1422
1749976401.7667336,1260
1749976401.7667933,1340
1749976401.766857,1713
1749976401.7669232,2155
1749976401.7669897,2388
1749976401.7670555,2352
1749976401.767122,2125
1749976401.7671874,1844
1749976401.767253,1588
1749976401.7673185,1367
1749976401.767384,1211
1749976401.7674496,1293
1749976401.7675154,1671
1749976401.7675822,2143
1749976401.7676477,2405
1749976401.7677355,2383
1749976401.7678537,2160
1749976401.7679205,1890
1749976401.767986,1647
1749976401.7680523,1426
1749976401.7681186,1230
1749976401.7681844,1251
1749976401.7682512,1614
1749976401.7683175,2149
1749976401.7683833,2495
1749976401.7684495,2509
1749976401.7685153,2282
1749976401.7685812,2010
1749976401.7686467,1779
1749976401.7687128,1560
1749976401.768787,1312
1749976401.768854,1229
1749976401.7689202,1519
1749976401.7689855,2079
1749976401.7690508,2515
1749976401.7691169,2595
1749976401.769183,2383
1749976401.769249,2098
1749976401.7693148,1869
1749976401.76938,1669
1749976401.793672,1419
1749976401.805732,1258
1749976401.806082,1435
1749976401.8156767,1931
1749976401.8161032,2393
1749976401.8237433,2538
1749976401.8450255,2381
1749976401.8451154,2108
1749976401.8486195,1865
1749976401.8487585,1654
1749976401.848833,1413
1749976401.848909,1247
1749976401.8489811,1407
1749976401.849053,1906
1749976401.850459,2409
1749976401.8505492,2593
1749976401.8506224,2449
1749976401.8506944,2161
1749976401.8507662,1908
1749976401.8508315,1710
1749976401.850894,1489
1749976401.8509657,1280
1749976401.851037,1324
1749976401.8511083,1710
1749976401.8511796,2199
1749976401.8512506,2456
1749976401.8513224,2403
1749976401.8513944,2153
1749976401.8514652,1883
1749976401.8515368,1659
1749976401.8516073,1455
1749976401.851678,1272
1749976401.8517492,1308
1749976401.85182,1665
1749976401.851891,2158
1749976401.8519623,2449
1749976401.8520336,2435
1749976401.8541238,2205
1749976401.8542314,1933
1749976401.85434,1695
1749976401.8544495,1476
1749976401.8545525,1263
1749976401.8546555,1253
1749976401.8792179,1599
1749976401.8800054,2147
1749976401.8812048,2517
1749976401.881279,2539
1749976401.8813498,2305
1749976401.8814204,2029
1749976401.8814902,1811
1749976401.8815606,1613
1749976401.8816342,1373
1749976401.8817043,1262
1749976401.8817747,1508
1749976401.8818455,2041
1749976401.8819158,2481
1749976401.8819866,2575
1749976401.882052,2370
1749976401.8821285,2079
1749976401.882197,1843
1749976401.9466927,1649
1749976401.9473896,1415
1749976401.9474697,1255
1749976401.9475458,1414
1749976401.9476206,1894
1749976401.9476962,2358
1749976401.9477713,2516
1749976401.9478464,2369
1749976401.9484518,2090
1749976401.995335,1838
1749976401.9955862,1630
1749976401.9956772,1405
1749976401.995746,1238
1749976401.9958177,1370
1749976401.9958892,1835
1749976401.9959602,2334
1749976401.9960306,2539
1749976401.9961028,2423
1749976401.996174,2143
1749976401.9962459,1885
1749976401.9963167,1684
1749976401.9963882,1475
1749976401.9964583,1271
1749976401.9965293,1301
1749976401.9966009,1666
1749976401.9966717,2151
1749976401.9967442,2417
1749976401.9968154,2377
1749976401.9968839,2135
1749976401.9969504,1867
1749976401.9970214,1643
1749976401.9970927,1437
1749976401.9971642,1243
1749976401.9972355,1263
1749976401.9973068,1617
1749976401.997379,2128
1749976401.9974499,2442
1749976401.9975212,2437
1749976401.9975922,2206
1749976401.9976704,1938
1749976401.997741,1716
1749976401.9978123,1513
1749976401.9978836,1293
1749976401.9979553,1234
1749976401.998025,1511
1749976401.9980838,2012
1749976401.9981518,2381
1749976401.9982233,2436
1749976401.9982948,2237
1749976401.9983664,1966
1749976401.9984381,1727
1749976401.9985106,1518
1749976401.9985824,1295
1749976401.9986532,1206
1749976401.9987333,1449
1749976401.9988105,1962
1749976401.9988723,2394
1749976401.998933,2508
1749976401.9990048,2335
1749976401.9990768,2050
1749976401.9991488,1795
1749976401.9992208,1591
1749976401.9992924,1377
1749976401.999364,1225
1749976401.9994361,1338
1749976401.9995081,1736
1749976401.9995801,2157
1749976401.9996517,2348
1749976401.9997232,2274
1749976401.999795,2032
1749976401.9998674,1760
1749976401.999939,1526
1749976402.0000107,1320
1749976402.0000827,1191
1749976402.0001547,1318
1749976402.0002258,1724
1749976402.0002978,2173
1749976402.0003695,2387
1749976402.0004413,2323
1749976402.0005133,2081
1749976402.000585,1809
1749976402.0006604,1572
1749976402.0007346,1357
1749976402.0008068,1193
1749976402.0008788,1283
1749976402.0009508,1702
1749976402.0010226,2222
1749976402.0010943,2498
1749976402.001166,2446
1749976402.0012379,2192
1749976402.0013096,1926
1749976402.0013814,1707
1749976402.0014532,1486
1749976402.0015252,1248
1749976402.0016046,1211
1749976402.0016763,1538
1749976402.0017476,2073
1749976402.00182,2437
1749976402.0018916,2467
1749976402.001963,2248
1749976402.0431411,1978
1749976402.0432482,1751
1749976402.0433226,1544
1749976402.0433946,1309
1749976402.043468,1213
1749976402.0435405,1449
1749976402.0436132,1935
1749976402.0437376,2327
1749976402.0438085,2421
1749976402.0438797,2251
1749976402.043953,1981
1749976402.0440261,1727
1749976402.0441403,1511
1749976402.0442145,1296
1749976402.0442915,1204
1749976402.0443647,1424
1749976402.0444367,1906
1749976402.0445096,2327
1749976402.04458,2451
1749976402.0446525,2298
1749976402.044725,2029
1749976402.0747573,1778
1749976402.0756211,1567
1749976402.0757365,1349
1749976402.0758433,1210
1749976402.0759518,1370
1749976402.0958157,1837
1749976402.1710432,2308
1749976402.1715934,2488
1749976402.1717036,2367
1749976402.1718092,2104
1749976402.1719143,1858
1749976402.172019,1648
1749976402.172138,1413
1749976402.1727138,1216
1749976402.1732974,1312
1749976402.1735718,1772
1749976402.1738288,2312
1749976402.1750414,2564
1749976402.1755354,2472
1749976402.17586,2202
1749976402.1778216,1953
1749976402.178467,1756
1749976402.180726,1530
1749976402.1810565,1282
1749976402.1813252,1272
1749976402.181585,1648
1749976402.1818454,2198
1749976402.183401,2522
1749976402.2102377,2493
1749976402.2464395,2238
1749976402.2468264,1971
1749976402.2472036,1764
1749976402.2476518,1559
1749976402.2480235,1319
1749976402.2483928,1255
1749976402.248776,1553
1749976402.2491443,2078
1749976402.3037794,2446
1749976402.3650496,2480
1749976402.3654127,2261
1749976402.3657498,1987
1749976402.366078,1759
1749976402.366408,1558
1749976402.366736,1334
1749976402.3670511,1245
1749976402.3766236,1486
1749976402.3770356,1983
1749976402.3774636,2387
1749976402.377846,2482
1749976402.3781707,2303
1749976402.3784986,2021
1749976402.3788517,1767
1749976402.3791888,1566
1749976402.3800309,1364
1749976402.3803756,1249
1749976402.3807158,1405
1749976402.3810482,1819
1749976402.3813853,2219
1749976402.4054198,2378
1749976402.4067752,2281
1749976402.4068615,2034
1749976402.4069512,1760
1749976402.4070477,1522
1749976402.4071438,1319
1749976402.4072404,1215
1749976402.4490755,1378
1749976402.4492097,1808
1749976402.4493532,2254
1749976402.4494746,2455
1749976402.4502554,2381
1749976402.4506283,2129
1749976402.4507654,1841
1749976402.4512553,1594
1749976402.45138,1387
1749976402.451649,1240
1749976402.4519305,1320
1749976402.4524765,1680
1749976402.4525993,2130
1749976402.4527187,2393
1749976402.4529672,2392
1749976402.453182,2184
1749976402.4598236,1901
1749976402.45995,1632
1749976402.4625149,1405
1749976402.4635518,1238
1749976402.4636838,1290
1749976402.4638014,1640
1749976402.4639175,2121
1749976402.4640336,2430
1749976402.4641485,2458
1749976402.4642875,2257
1749976402.4644032,1969
1749976402.4645185,1690
1749976402.4646337,1457
1749976402.4647484,1261
1749976402.4648635,1243
1749976402.4649787,1518
1749976402.4650936,1980
1749976402.4652092,2332
1749976402.4653249,2423
1749976402.4654548,2273
1749976402.4655712,2002
1749976402.46617,1714
1749976402.466509,1467
1749976402.4666166,1261
1749976402.46672,1215
1749976402.4669123,1469
1749976402.4669878,1944
1749976402.4670627,2343
1749976402.4671383,2471
1749976402.4672132,2342
1749976402.4672873,2076
1749976402.4673615,1791
1749976402.4674358,1544
1749976402.4675105,1328
1749976402.4675848,1230
1749976402.4676557,1415
1749976402.4677305,1861
1749976402.4678044,2295
1749976402.4678788,2481
1749976402.4679537,2397
1749976402.468028,2144
1749976402.468103,1856
1749976402.4681783,1604
1749976402.4682522,1387
1749976402.4683268,1252
1749976402.468401,1368
1749976402.4684753,1759
1749976402.4685504,2204
1749976402.468626,2441
1749976402.4687,2412
1749976402.4687946,2181
1749976402.4688737,1883
1749976402.4689488,1611
1749976402.4690242,1393
1749976402.4690986,1252
1749976402.4691732,1336
1749976402.4692485,1693
1749976402.4693239,2147
1749976402.4693985,2425
1749976402.4694731,2445
1749976402.4695477,2243
1749976402.471689,1948
1749976402.471773,1661
1749976402.471851,1432
1749976402.4719288,1269
1749976402.472006,1304
1749976402.4720979,1615
1749976402.4721768,2065
1749976402.4722548,2376
1749976402.472332,2434
1749976402.472409,2268
1749976402.4724863,1996
1749976402.4725633,1712
1749976402.472641,1464
1749976402.4727182,1263
1749976402.4727943,1257
1749976402.472867,1574
1749976402.4729438,2092
1749976402.4730215,2476
1749976402.4730992,2551
1749976402.4731762,2366
1749976402.4732535,2086
1749976402.4733305,1824
1749976402.473403,1592
1749976402.4734795,1352
1749976402.473563,1242
1749976402.4757202,1467
1749976402.475806,1983
1749976402.4758818,2446
1749976402.4759588,2594
1749976402.4760363,2444
1749976402.4761143,2170
1749976402.4761918,1917
1749976402.4762692,1695
1749976402.476348,1444
1749976402.4764252,1268
1749976402.5376437,1414
1749976402.575735,1904
1749976402.6060297,2413
1749976402.60642,2614
1749976402.606796,2487
1749976402.607152,2206
1749976402.6075082,1949
1749976402.607864,1738
1749976402.6082103,1500
1749976402.608557,1293
1749976402.608942,1375
1749976402.6092775,1827
1749976402.6096163,2367
1749976402.6099463,2623
1749976402.6372302,2532
1749976402.6422086,2250
1749976402.6612127,1982
1749976402.6612923,1771
1749976402.6613653,1549
1749976402.6614377,1318
1749976402.6615093,1318
1749976402.6615808,1685
1749976402.6616523,2217
1749976402.661724,2533
1749976402.6617956,2511
1749976402.6618676,2258
1749976402.6619442,1979
1749976402.6620135,1756
1749976402.6620898,1558
1749976402.662165,1343
1749976402.6622446,1294
1749976402.6623268,1568
1749976402.6624036,2049
1749976402.6624787,2398
1749976402.6625535,2453
1749976402.6626287,2260
1749976402.662703,1983
1749976402.6627784,1727
1749976402.6628406,1512
1749976402.6629019,1310
1749976402.662977,1264
1749976402.6630552,1534
1749976402.663132,2030
1749976402.6632068,2415
1749976402.663282,2496
1749976402.663357,2315
1749976402.663432,2041
1749976402.6635072,1790
1749976402.6635818,1575
1749976402.663657,1354
1749976402.6637316,1249
1749976402.663806,1468
1749976402.663881,1972
1749976402.6639555,2430
1749976402.6640306,2573
1749976402.6641054,2420
1749976402.6641812,2143
1749976402.6642666,1895
1749976402.6643407,1688
1749976402.6644158,1455
1749976402.6644905,1273
1749976402.6645656,1383
1749976402.6646407,1826
1749976402.6649277,2314
1749976402.6650102,2530
1749976402.6650896,2434
1749976402.6651676,2171
1749976402.665243,1910
1749976402.6653178,1688
1749976402.6654317,1456
1749976402.6892831,1259
1749976402.6942742,1337
1749976402.7619302,1771
1749976402.7792103,2302
1749976402.8193018,2568
1749976402.8236032,2495
1749976402.8239434,2228
1749976402.8242714,1964
1749976402.8245978,1752
1749976402.8249207,1528
1749976402.825244,1295
1749976402.8255987,1296
1749976402.8259237,1681
1749976402.826241,2243
1749976402.9401705,2579
1749976402.9832065,2550
1749976402.9885817,2290
1749976402.9889429,2023
1749976402.9892728,1822
1749976402.9896019,1618
1749976402.9899254,1366
1749976402.9902446,1285
1749976402.9905686,1587
1749976402.9908872,2143
1749976402.9912343,2544
1749976402.9915636,2581
1749976402.991891,2342
1749976403.0013087,2054
1749976403.0021482,1836
1749976403.002261,1650
1749976403.0023685,1415
1749976403.0024855,1282
1749976403.002591,1482
1749976403.0026734,1974
1749976403.0027661,2402
1749976403.003709,2515
1749976403.0116327,2338
1749976403.0119734,2056
1749976403.0123205,1810
1749976403.012651,1607
1749976403.0129976,1385
1749976403.0133274,1254
1749976403.013658,1439
1749976403.0139902,1933
1749976403.0143106,2404
1749976403.014641,2559
1749976403.0149753,2405
1749976403.015306,2123
1749976403.0397418,1877
1749976403.0490837,1679
1749976403.0491776,1453
1749976403.0501516,1269
1749976403.0503216,1381
1749976403.0505114,1844
1749976403.063363,2358
1749976403.063752,2575
1749976403.0831492,2457
1749976403.109241,2181
1749976403.112352,1937
1749976403.1140883,1743
1749976403.114881,1515
1749976403.115198,1282
1749976403.119375,1312
1749976403.1197426,1730
1749976403.1199918,2286
1749976403.1202166,2578
1749976403.1205275,2508
1749976403.1209023,2229
1749976403.1212113,1965
1749976403.121455,1769
1749976403.12161,1560
1749976403.1216905,1314
1749976403.1217716,1269
1749976403.1218526,1606
1749976403.1219332,2154
1749976403.1220112,2509
1749976403.1272123,2507
1749976403.1571498,2257
1749976403.1574275,1981
1749976403.1682084,1769
1749976403.1685863,1570
1749976403.1689744,1329
1749976403.1693394,1243
1749976403.16971,1520
1749976403.1878471,2057
1749976403.195846,2461
1749976403.1964695,2516
1749976403.1965823,2295
1749976403.1966872,2012
1749976403.1967926,1789
1749976403.1968973,1597
1749976403.202153,1362
1749976403.2029495,1232
1749976403.2032878,1441
1749976403.2037125,1949
1749976403.2038202,2397
1749976403.2039237,2515
1749976403.2040253,2333
1749976403.2043405,2044
1749976403.2045963,1799
1749976403.2047024,1603
1749976403.2048066,1384
1749976403.2049103,1234
1749976403.2050195,1388
1749976403.2051246,1859
1749976403.2052262,2338
1749976403.2053287,2523
1749976403.205442,2398
1749976403.205546,2120
1749976403.2056482,1858
1749976403.2057507,1648
1749976403.2058537,1430
1749976403.2059553,1242
1749976403.2060575,1301
1749976403.2061596,1679
1749976403.2062619,2142
1749976403.2063637,2380
1749976403.206467,2327
1749976403.2065687,2084
1749976403.2067258,1813
1749976403.2068317,1577
1749976403.2069504,1359
1749976403.2070525,1186
1749976403.2071548,1268
1749976403.2089658,1690
1749976403.209071,2224
1749976403.209174,2511
1749976403.2092767,2459
1749976403.2093785,2197
1749976403.209481,1926
1749976403.2095833,1707
1749976403.2096856,1488
1749976403.209788,1249
1749976403.2098904,1217
1749976403.2099957,1567
1749976403.2101023,2135
1749976403.2102041,2514
1749976403.2103066,2527
1749976403.212154,2281
1749976403.2122586,2007
1749976403.2123606,1796
1749976403.2124622,1588
1749976403.212564,1320
1749976403.2126656,1194
1749976403.2131784,1453
1749976403.215094,2012
1749976403.2152379,2459
1749976403.2153409,2535
1749976403.215743,2297
1749976403.2158487,1971
1749976403.215951,1702
1749976403.2189124,1472
1749976403.2192607,1203
1749976403.2193701,1030
1749976403.2194736,1199
1749976403.2195764,1694
1749976403.2196786,2162
1749976403.2197812,2319
1749976403.2198834,2175
1749976403.2199855,1915
1749976403.2200878,1692
1749976403.2201905,1514
1749976403.220294,1304
1749976403.2203953,1134
1749976403.2204978,1238
1749976403.2206001,1654
1749976403.2207117,2099
1749976403.2208142,2269
1749976403.220917,2134
1749976403.2210202,1833
1749976403.221122,1529
1749976403.2212243,1268
1749976403.2213266,1019
1749976403.2214286,839
1749976403.2215304,957
1749976403.2216325,1429
1749976403.2217352,1980
1749976403.221838,2251
1749976403.2219403,2172
1749976403.2220423,1891
1749976403.2223256,1611
1749976403.2229674,1394
1749976403.223073,1186
1749976403.2239187,965
1749976403.2239985,931
1749976403.2240732,1221
1749976403.2241483,1681
1749976403.2242224,1983
1749976403.2242973,2005
1749976403.2243714,1809
1749976403.2244465,1551
1749976403.224521,1315
1749976403.2245955,1110
1749976403.2246733,926
1749976403.2247474,929
1749976403.2248218,1246
1749976403.2248957,1751
1749976403.2249696,2122
1749976403.2250438,2206
1749976403.225118,2043
1749976403.2251918,1775
1749976403.2252662,1511
1749976403.22534,1287
1749976403.2254288,1093
1749976403.2255037,1060
1749976403.2255778,1329
1749976403.2256517,1812
1749976403.2257254,2192
1749976403.2257988,2286
1749976403.2258723,2137
1749976403.225947,1895
1749976403.2332182,1664
1749976403.2333002,1453
1749976403.2333732,1232
1749976403.2334552,1134
1749976403.2335267,1372
1749976403.233727,1905
1749976403.2341754,2383
1749976403.2344308,2521
1749976403.2346528,2336
1749976403.2349072,2021
1749976403.2660928,1740
1749976403.2664337,1503
1749976403.2741835,1238
1749976403.2745159,1018
1749976403.2748446,1103
1749976403.2751796,1554
1749976403.2794673,2083
1749976403.279649,2344
1749976403.2800438,2284
1749976403.2805064,2050
1749976403.2805853,1822
1749976403.2807982,1631
1749976403.281012,1418
1749976403.2813747,1224
1749976403.2815814,1303
1749976403.2818723,1751
1749976403.2820146,2306
1749976403.3137853,2580
1749976403.3663146,2487
1749976403.410021,2181
1749976403.4516761,1885
1749976403.4932747,1653
1749976403.4934173,1418
1749976403.493545,1162
1749976403.4936879,1124
1749976403.4950168,1471
1749976403.495146,2028
1749976403.4952645,2401
1749976403.502988,2429
1749976403.5031023,2210
1749976403.503636,1953
1749976403.5037456,1751
1749976403.5038671,1570
1749976403.5050206,1361
1749976403.5051868,1303
1749976403.5052955,1577
1749976403.50552,2078
1749976403.5421295,2444
1749976403.5448165,2487
1749976403.5449314,2266
1749976403.5450363,1970
1749976403.5451486,1714
1749976403.545252,1496
1749976403.5453563,1266
1749976403.5454764,1166
1749976403.5455809,1403
1749976403.5456846,1921
1749976403.5457873,2372
1749976403.5458913,2505
1749976403.5460873,2346
1749976403.5461915,2069
1749976403.5462945,1817
1749976403.5463984,1605
1749976403.5465016,1377
1749976403.5466046,1239
1749976403.5467074,1413
1749976403.5469072,1894
1749976403.5470126,2359
1749976403.5471773,2520
1749976403.5472806,2383
1749976403.5473971,2126
1749976403.5475,1905
1749976403.5476024,1726
1749976403.5477057,1511
1749976403.547809,1323
1749976403.547912,1418
1749976403.548014,1863
1749976403.5481162,2380
1749976403.5482187,2616
1749976403.5483208,2510
1749976403.548423,2212
1749976403.548526,1918
1749976403.5486286,1680
1749976403.548738,1445
1749976403.5488417,1225
1749976403.5489435,1255
1749976403.549051,1649
1749976403.549155,2189
1749976403.5492575,2503
1749976403.5493612,2483
1749976403.549464,2244
1749976403.5495667,1985
1749976403.5496697,1776
1749976403.5497723,1571
1749976403.5498753,1353
1749976403.550073,1333
1749976403.550181,1667
1749976403.5502827,2193
1749976403.5503845,2535
1749976403.5504866,2545
1749976403.550589,2324
1749976403.5506916,2069
1749976403.5507932,1858
1749976403.5508945,1655
1749976403.5509968,1420
1749976403.5511112,1347
1749976403.5512135,1630
1749976403.5513403,2158
1749976403.5514429,2547
1749976403.5515454,2592
1749976403.551648,2370
1749976403.5517504,2084
1749976403.5518522,1845
1749976403.5519543,1633
1749976403.5982022,1389
1749976403.598384,1263
1749976403.5984454,1485
1749976403.5985072,2014
1749976403.5985787,2490
1749976403.598652,2636
1749976403.5987556,2469
1749976403.59884,2170
1749976403.5988994,1899
1749976403.5989933,1681
1749976403.5990744,1453
1749976403.5992162,1289
1749976403.5992908,1406
1749976403.5999281,1826
1749976403.6000063,2276
1749976403.6000786,2474
1749976403.6001506,2395
1749976403.6002324,2160
1749976403.6003041,1912
1749976403.600376,1699
1749976403.600448,1492
1749976403.6005194,1339
1749976403.6005912,1447
1749976403.6006851,1864
1749976403.6007566,2351
1749976403.600828,2596
1749976403.600899,2540
1749976403.60097,2286
1749976403.6010416,1998
1749976403.6011124,1748
1749976403.6011832,1527
1749976403.6012542,1347
1749976403.601325,1391
1749976403.6013956,1750
1749976403.6014667,2239
1749976403.6015377,2538
1749976403.601609,2546
1749976403.6016796,2337
1749976403.6017506,2072
1749976403.6018214,1832
1749976403.6018927,1615
1749976403.6019635,1413
1749976403.6020236,1400
1749976403.6021292,1716
1749976403.6022024,2228
1749976403.602274,2593
1749976403.7155344,2646
1749976403.773809,2439
1749976403.8104618,2143
1749976403.810719,1868
1749976403.8108122,1626
1749976403.8659751,1396
1749976403.8970053,1338
1749976403.9003215,1628
1749976403.900739,2163
1749976403.9010746,2577
1749976403.9014046,2655
1749976403.9017334,2463
1749976403.90208,2203
1749976403.9024146,1990
1749976403.915092,1792
1749976403.9437764,1538
1749976403.9443333,1377
1749976403.9447558,1573
1749976403.9450903,2113
1749976403.9454472,2622
1749976403.9457808,2779
1749976403.9461446,2587
1749976403.9770114,2262
1749976403.9823325,1985
1749976403.9824123,1763
1749976403.982486,1503
1749976403.9825592,1286
1749976403.9826322,1379
1749976403.9827054,1843
1749976403.9827778,2366
1749976403.9828382,2594
1749976403.9829104,2482
1749976403.9829826,2205
1749976403.9830549,1961
1749976403.983127,1780
1749976403.983199,1577
1749976403.9832711,1374
1749976403.9833436,1425
1749976403.9834156,1837
1749976403.9834878,2370
1749976403.9835596,2647
1749976403.9836411,2569
1749976403.983713,2267
1749976403.9837854,1956
1749976403.9838579,1711
1749976403.9839296,1486
1749976403.9840019,1264
1749976403.9840744,1256
1749976403.984146,1600
1749976403.9842184,2120
1749976403.9842901,2449
1749976403.9843626,2454
1749976403.9844346,2232
1749976403.9845064,1980
1749976403.9845784,1774
1749976403.9846497,1581
1749976403.9847217,1368
1749976403.9847934,1333
1749976403.9848652,1654
1749976403.9849374,2195
1749976403.9850094,2571
1749976403.9850812,2589
1749976403.985153,2336
1749976403.9852245,2028
1749976403.9852967,1784
1749976403.9853683,1581
1749976403.9854567,1349
1749976403.9855285,1230
1749976403.9856024,1440
1749976403.9856737,1932
1749976403.9857452,2368
1749976403.9858162,2506
1749976403.9858875,2360
1749976403.9859588,2096
1749976403.9860196,1851
1749976403.9860866,1649
1749976403.9861584,1444
1749976403.9862306,1331
1749976403.9863024,1511
1749976403.986374,1971
1749976403.9864454,2407
1749976403.9865172,2553
1749976403.986589,2404
1749976403.9874742,2105
1749976404.0023088,1807
1749976404.0024304,1554
1749976404.0031266,1310
1749976404.0032642,1140
1749976404.0037503,1260
1749976404.0324132,1707
1749976404.0392835,2207
1749976404.0732026,2444
1749976404.0732965,2376
1749976404.0737724,2136
1749976404.0738623,1891
1749976404.0739455,1684
1749976404.0740318,1469
1749976404.0741148,1283
1749976404.0742137,1359
1749976404.0742974,1787
1749976404.0743787,2323
1749976404.0744603,2599
1749976404.0745418,2521
1749976404.0746236,2225
1749976404.0747209,1914
1749976404.0748038,1658
1749976404.074885,1410
1749976404.074966,1155
1749976404.0750465,1101
1749976404.075144,1402
1749976404.0752816,1909
1749976404.0753665,2266
1749976404.075482,2322
1749976404.0755835,2139
1749976404.075666,1888
1749976404.0757475,1660
1749976404.0758293,1463
1749976404.1010337,1272
1749976404.102459,1243
1749976404.1025789,1525
1749976404.102691,2014
1749976404.1029243,2382
1749976404.1030352,2453
1749976404.1031444,2261
1749976404.103255,1956
1749976404.1033654,1661
1749976404.1034799,1424
1749976404.1036077,1222
1749976404.1037204,1151
1749976404.1038308,1359
1749976404.103946,1796
1749976404.104074,2188
1749976404.1042354,2340
1749976404.1043577,2246
1749976404.1047566,2008
1749976404.1049042,1743
1749976404.1054964,1517
1749976404.1065006,1326
1749976404.1066499,1247
1749976404.1069553,1438
1749976404.107037,1880
1749976404.1071143,2310
1749976404.107192,2491
1749976404.1072996,2410
1749976404.1073847,2171
1749976404.1074603,1903
1749976404.107539,1662
1749976404.1076148,1442
1749976404.1076906,1312
1749976404.107795,1479
1749976404.1078856,1964
1749976404.1184273,2487
1749976404.1189632,2724
1749976404.1193287,2633
1749976404.119664,2365
1749976404.1200068,2101
1749976404.1203423,1884
1749976404.1206753,1656
1749976404.1210048,1430
1749976404.1213593,1442
1749976404.1216912,1819
1749976404.1221435,2355
1749976404.1224759,2683
1749976404.122887,2678
1749976404.1232357,2438
1749976404.1235678,2158
1749976404.123889,1919
1749976404.12421,1697
1749976404.1245325,1472
1749976404.1248546,1436
1749976404.125195,1739
1749976404.1263707,2245
1749976404.1268706,2601
